# Use this header for notes and global details
# Name of benchmark/experiment:
# Case number:
# Instellation (S_earth):
# XCO2 (ppm):
# Obliquity (degrees):

# Columns of data (annually averaged for last orbit)
# Lat = latitude (degrees)
# Tsurf = annually averaged surface temperature (K)
# Asurf = annually averaged surface albedo
# ATOA = annually averaged top-of-atmosphere/total/planetary albedo
# OLR = annually averaged outgoing longwave radiation (W m^-2)

# Lat Tsurf Asurf ATOA OLR
-83.380372 288.544080 0.270000 0.306406 236.223627
-78.521659 288.676661 0.270000 0.304666 236.500721
-75.164888 288.798558 0.270000 0.303165 236.755486
-72.427054 288.913724 0.270000 0.301775 236.996183
-70.051556 289.024216 0.270000 0.300459 237.227111
-67.921031 289.131509 0.268750 0.298281 237.451354
-65.970136 289.236662 0.268750 0.297065 237.671124
-64.158067 289.338641 0.267500 0.294570 237.884260
-62.457325 289.437480 0.267500 0.293419 238.090833
-60.848336 289.534540 0.267500 0.292301 238.293689
-59.316583 289.630616 0.267500 0.291215 238.494487
-57.850948 289.728921 0.266250 0.289225 238.699945
-56.442690 289.827490 0.266250 0.288191 238.905954
-55.084794 289.926678 0.266250 0.287184 239.113257
-53.771523 290.026820 0.266250 0.286201 239.322554
-52.498117 290.128169 0.266250 0.285243 239.534373
-51.260575 290.226923 0.265000 0.282934 239.740769
-50.055495 290.324474 0.263750 0.281072 239.944651
-48.879952 290.428670 0.263750 0.280173 240.162420
-47.731416 290.534246 0.263750 0.279296 240.383074
-46.607672 290.641381 0.263750 0.278442 240.606986
-45.506776 290.749821 0.262500 0.276225 240.833626
-44.427004 290.854784 0.262500 0.275408 241.052999
-43.366822 290.962476 0.261250 0.273656 241.278075
-42.324857 291.074904 0.261250 0.272876 241.513049
-41.299873 291.188862 0.261250 0.272116 241.751222
-40.290752 291.302401 0.260000 0.269988 241.988518
-39.296480 291.413363 0.260000 0.269265 242.220429
-38.316134 291.529911 0.260000 0.268562 242.464014
-37.348870 291.648020 0.258750 0.266911 242.710862
-36.393910 291.765255 0.257500 0.264855 242.955883
-35.450543 291.878727 0.257500 0.264202 243.193039
-34.518108 291.997657 0.257500 0.263568 243.441603
-33.595995 292.116612 0.257500 0.262953 243.690219
-32.683639 292.231181 0.255000 0.260003 243.929668
-31.780510 292.346665 0.255000 0.259418 244.171030
-30.886118 292.464046 0.255000 0.258851 244.416356
-30.000000 292.579408 0.253750 0.256927 244.657463
-29.121726 292.689579 0.253750 0.256394 244.887720
-28.250889 292.803761 0.252500 0.254904 245.126360
-27.387108 292.914879 0.251250 0.253039 245.358597
-26.530021 293.022081 0.251250 0.252553 245.582649
-25.679289 293.131709 0.251250 0.252086 245.811772
-24.834587 293.237108 0.250000 0.250283 246.032056
-23.995611 293.340393 0.248750 0.248863 246.247921
-23.162069 293.444466 0.248750 0.248441 246.465434
-22.333683 293.541377 0.247500 0.246696 246.667978
-21.510188 293.641191 0.247500 0.246306 246.876589
-20.691333 293.733866 0.245000 0.243621 247.070280
-19.876874 293.828968 0.245000 0.243256 247.269043
-19.066580 293.919655 0.243750 0.241609 247.458579
-18.260228 294.006953 0.242500 0.240280 247.641032
-17.457603 294.090988 0.241250 0.238679 247.816665
-16.658499 294.174690 0.241250 0.238370 247.991602
-15.862716 294.252339 0.238750 0.235818 248.153889
-15.070062 294.329307 0.237500 0.234305 248.314752
-14.280350 294.401992 0.235000 0.231821 248.466663
-13.493399 294.471725 0.235000 0.231554 248.612405
-12.709033 294.536485 0.231250 0.227957 248.747754
-11.927082 294.597050 0.225000 0.222341 248.874334
-11.147378 294.656574 0.225000 0.222077 248.998740
-10.369760 294.712136 0.225000 0.221830 249.114864
-9.594068 294.763736 0.225000 0.221601 249.222708
-8.820148 294.811377 0.225000 0.221390 249.322278
-8.047846 294.855059 0.225000 0.221197 249.413573
-7.277014 294.894783 0.225000 0.221020 249.496596
-6.507504 294.930551 0.225000 0.220862 249.571352
-5.739170 294.962364 0.225000 0.220721 249.637841
-4.971872 294.990223 0.225000 0.220598 249.696066
-4.205466 295.014128 0.225000 0.220492 249.746028
-3.439813 295.034080 0.225000 0.220404 249.787727
-2.674774 295.050080 0.225000 0.220334 249.821167
-1.910213 295.062129 0.225000 0.220281 249.846350
-1.145992 295.070225 0.225000 0.220246 249.863270
-0.381975 295.074371 0.225000 0.220229 249.871935
0.381975 295.074565 0.225000 0.220229 249.872341
1.145992 295.070809 0.225000 0.220246 249.864491
1.910213 295.063101 0.225000 0.220282 249.848381
2.674774 295.051441 0.225000 0.220335 249.824012
3.439813 295.035830 0.225000 0.220405 249.791385
4.205466 295.016265 0.225000 0.220493 249.750494
4.971872 294.992748 0.225000 0.220599 249.701343
5.739170 294.965276 0.225000 0.220723 249.643927
6.507504 294.933850 0.225000 0.220864 249.578247
7.277014 294.898467 0.225000 0.221022 249.504296
8.047846 294.859128 0.225000 0.221199 249.422078
8.820148 294.815830 0.225000 0.221392 249.331585
9.594068 294.768573 0.225000 0.221604 249.232818
10.369760 294.717354 0.225000 0.221833 249.125770
11.147378 294.662173 0.225000 0.222080 249.010442
11.927082 294.603029 0.225000 0.222344 248.886831
12.709033 294.542585 0.231250 0.227964 248.760503
13.493399 294.478347 0.235000 0.231556 248.626245
14.280350 294.409249 0.235000 0.231823 248.481830
15.070062 294.337036 0.237500 0.234304 248.330905
15.862716 294.259997 0.238750 0.235814 248.169894
16.658499 294.182637 0.241250 0.238360 248.008211
17.457603 294.100011 0.241250 0.238669 247.835523
18.260228 294.015774 0.242500 0.240273 247.659468
19.066580 293.929269 0.243750 0.241603 247.478672
19.876874 293.838586 0.245000 0.243254 247.289145
20.691333 293.743818 0.245000 0.243619 247.091080
21.510188 293.651544 0.247500 0.246308 246.898227
22.333683 293.552056 0.247500 0.246698 246.690297
23.162069 293.455528 0.248750 0.248446 246.488554
23.995611 293.351773 0.248750 0.248868 246.271706
24.834587 293.248374 0.250000 0.250290 246.055602
25.679289 293.143764 0.251250 0.252095 245.836967
26.530021 293.034448 0.251250 0.252562 245.608496
27.387108 292.926887 0.251250 0.253049 245.383694
28.250889 292.816787 0.252500 0.254916 245.153585
29.121726 292.702913 0.253750 0.256408 244.915588
30.000000 292.592188 0.253750 0.256941 244.684173
30.886118 292.477848 0.255000 0.258864 244.445202
31.780510 292.360768 0.255000 0.259431 244.200505
32.683639 292.244942 0.255000 0.260016 243.958429
33.595995 292.131238 0.257500 0.262966 243.720787
34.518108 292.012578 0.257500 0.263581 243.472788
35.450543 291.893938 0.257500 0.264215 243.224830
36.393910 291.780410 0.257500 0.264868 242.987557
37.348870 291.663744 0.258750 0.266923 242.743725
38.316134 291.545905 0.260000 0.268572 242.497441
39.296480 291.429670 0.260000 0.269275 242.254510
40.290752 291.318958 0.260000 0.269998 242.023122
41.299873 291.205573 0.261250 0.272125 241.786148
42.324857 291.091831 0.261250 0.272884 241.548427
43.366822 290.979599 0.261250 0.273664 241.313862
44.427004 290.872433 0.262500 0.275414 241.089885
45.506776 290.767589 0.263750 0.277613 240.870761
46.607672 290.659430 0.263750 0.278446 240.644709
47.731416 290.552946 0.263750 0.279301 240.422157
48.879952 290.448004 0.263750 0.280177 240.202828
50.055495 290.344995 0.263750 0.281076 239.987540
51.260575 290.248190 0.265000 0.282936 239.785217
52.498117 290.148617 0.266250 0.285244 239.577110
53.771523 290.047913 0.266250 0.286202 239.366638
55.084794 289.948404 0.266250 0.287184 239.158664
56.442690 289.849841 0.266250 0.288191 238.952668
57.850948 289.751894 0.266250 0.289225 238.747958
59.316583 289.655757 0.267500 0.291213 238.547032
60.848336 289.560316 0.267500 0.292299 238.347560
62.457325 289.463754 0.267500 0.293417 238.145746
64.158067 289.365375 0.267500 0.294568 237.940134
65.970136 289.262578 0.268750 0.297065 237.725288
67.921031 289.157896 0.268750 0.298280 237.506503
70.051556 289.051083 0.270000 0.300459 237.283263
72.427054 288.941088 0.270000 0.301774 237.053374
75.164888 288.826443 0.270000 0.303164 236.813766
78.521659 288.705099 0.270000 0.304666 236.560157
83.380372 288.573102 0.270000 0.306406 236.284283
