# Use this header for notes and global details
# Name of benchmark/experiment:
# Case number:
# Instellation (S_earth):
# XCO2 (ppm):
# Obliquity (degrees):

# Columns of data (annually averaged for last orbit)
# Lat = latitude (degrees)
# Tsurf = annually averaged surface temperature (K)
# Asurf = annually averaged surface albedo
# ATOA = annually averaged top-of-atmosphere/total/planetary albedo
# OLR = annually averaged outgoing longwave radiation (W m^-2)

# Lat Tsurf Asurf ATOA OLR
-83.380372 257.888385 0.600000 0.600000 171.403225
-78.521659 259.018551 0.600000 0.600000 173.765272
-75.164888 260.152530 0.600000 0.600000 176.135288
-72.427054 261.297230 0.600000 0.600000 178.527711
-70.051556 262.449833 0.600000 0.600000 180.936651
-67.921031 263.711155 0.589256 0.591305 183.572814
-65.970136 264.918845 0.586570 0.588929 186.096886
-64.158067 266.129595 0.583884 0.586490 188.627354
-62.457325 267.343303 0.545471 0.553978 191.164003
-60.848336 268.555025 0.495937 0.511318 193.696502
-59.316583 269.748650 0.457524 0.476527 196.191179
-57.850948 270.919285 0.414061 0.437289 198.637806
-56.442690 272.062242 0.354749 0.383048 201.026586
-55.084794 273.158120 0.352063 0.378920 203.316971
-53.771523 274.219416 0.350720 0.375802 205.535079
-52.498117 275.240803 0.349377 0.373076 207.669778
-51.260575 276.231105 0.348034 0.369973 209.739509
-50.055495 277.192897 0.346691 0.367286 211.749655
-48.879952 278.123847 0.345348 0.364208 213.695340
-47.731416 279.032259 0.345348 0.362591 215.593921
-46.607672 279.911299 0.342662 0.358512 217.431115
-45.506776 280.770164 0.341319 0.355485 219.226143
-44.427004 281.603216 0.339976 0.352891 220.967221
-43.366822 282.414017 0.338633 0.349901 222.661796
-42.324857 283.207526 0.337290 0.347350 224.320229
-41.299873 283.976599 0.335947 0.344401 225.927592
-40.290752 284.727000 0.333261 0.340426 227.495930
-39.296480 285.460325 0.333261 0.338986 229.028579
-38.316134 286.171814 0.330575 0.335048 230.515591
-37.348870 286.865537 0.329232 0.332198 231.965472
-36.393910 287.544331 0.327889 0.329756 233.384152
-35.450543 288.202446 0.326546 0.326956 234.759612
-34.518108 288.843373 0.323860 0.323105 236.099150
-33.595995 289.467321 0.321174 0.319275 237.403201
-32.683639 290.074561 0.319831 0.316571 238.672332
-31.780510 290.665365 0.317145 0.312796 239.907113
-30.886118 291.239117 0.313116 0.307678 241.106255
-30.000000 291.795144 0.310430 0.303954 242.268351
-29.121726 292.332120 0.297000 0.290417 243.390631
-28.250889 292.855533 0.297000 0.289124 244.484564
-27.387108 293.361581 0.297000 0.287867 245.542204
-26.530021 293.850579 0.297000 0.286646 246.564210
-25.679289 294.322822 0.297000 0.285461 247.551198
-24.834587 294.778579 0.297000 0.284312 248.503730
-23.995611 295.218104 0.297000 0.283199 249.422337
-23.162069 295.641630 0.297000 0.282122 250.307507
-22.333683 296.049376 0.297000 0.281080 251.159696
-21.510188 296.441545 0.297000 0.280075 251.979329
-20.691333 296.818326 0.297000 0.279105 252.766801
-19.876874 297.179894 0.297000 0.278172 253.522478
-19.066580 297.526415 0.297000 0.277274 254.246707
-18.260228 297.858042 0.297000 0.276412 254.939808
-17.457603 298.174917 0.297000 0.275586 255.602077
-16.658499 298.477174 0.297000 0.274796 256.233794
-15.862716 298.764935 0.297000 0.274042 256.835214
-15.070062 299.038318 0.297000 0.273324 257.406585
-14.280350 299.297428 0.297000 0.272642 257.948125
-13.493399 299.542366 0.297000 0.271996 258.460045
-12.709033 299.773224 0.297000 0.271385 258.942538
-11.927082 299.990088 0.297000 0.270811 259.395784
-11.147378 300.193036 0.297000 0.270272 259.819945
-10.369760 300.382142 0.297000 0.269770 260.215177
-9.594068 300.557472 0.297000 0.269303 260.581616
-8.820148 300.719088 0.297000 0.268872 260.919394
-8.047846 300.867045 0.297000 0.268477 261.228624
-7.277014 301.001394 0.297000 0.268118 261.509413
-6.507504 301.122180 0.297000 0.267795 261.761856
-5.739170 301.229443 0.297000 0.267508 261.986036
-4.971872 301.323219 0.297000 0.267257 262.182028
-4.205466 301.403539 0.297000 0.267041 262.349897
-3.439813 301.470429 0.297000 0.266862 262.489697
-2.674774 301.523910 0.297000 0.266718 262.601472
-1.910213 301.564001 0.297000 0.266611 262.685262
-1.145992 301.590714 0.297000 0.266539 262.741092
-0.381975 301.604057 0.297000 0.266503 262.768979
0.381975 301.604036 0.297000 0.266503 262.768935
1.145992 301.590649 0.297000 0.266539 262.740956
1.910213 301.563893 0.297000 0.266611 262.685036
2.674774 301.523759 0.297000 0.266719 262.601156
3.439813 301.470233 0.297000 0.266863 262.489287
4.205466 301.403300 0.297000 0.267043 262.349397
4.971872 301.322937 0.297000 0.267258 262.181438
5.739170 301.229117 0.297000 0.267510 261.985355
6.507504 301.121810 0.297000 0.267797 261.761083
7.277014 301.000981 0.297000 0.268120 261.508550
8.047846 300.866588 0.297000 0.268480 261.227669
8.820148 300.718587 0.297000 0.268875 260.918347
9.594068 300.556927 0.297000 0.269306 260.580477
10.369760 300.381553 0.297000 0.269773 260.213946
11.147378 300.192403 0.297000 0.270276 259.818622
11.927082 299.989410 0.297000 0.270814 259.394367
12.709033 299.772501 0.297000 0.271389 258.941027
13.493399 299.541599 0.297000 0.272000 258.458442
14.280350 299.296616 0.297000 0.272646 257.946427
15.070062 299.037460 0.297000 0.273329 257.404791
15.862716 298.764032 0.297000 0.274047 256.833327
16.658499 298.476225 0.297000 0.274801 256.231810
17.457603 298.173923 0.297000 0.275591 255.599999
18.260228 297.857002 0.297000 0.276418 254.937634
19.066580 297.525329 0.297000 0.277280 254.244438
19.876874 297.178762 0.297000 0.278177 253.520113
20.691333 296.817147 0.297000 0.279111 252.764337
21.510188 296.440320 0.297000 0.280081 251.976769
22.333683 296.048105 0.297000 0.281087 251.157039
23.162069 295.640312 0.297000 0.282128 250.304752
23.995611 295.216739 0.297000 0.283206 249.419485
24.834587 294.777167 0.297000 0.284319 248.500779
25.679289 294.321363 0.297000 0.285468 247.548149
26.530021 293.849073 0.297000 0.286653 246.561063
27.387108 293.360027 0.297000 0.287874 245.538956
28.250889 292.853932 0.297000 0.289131 244.481218
29.121726 292.330472 0.297000 0.290424 243.387186
30.000000 291.793389 0.310430 0.303956 242.264683
30.886118 291.237559 0.313116 0.307682 241.102998
31.780510 290.663634 0.317145 0.312805 239.903495
32.683639 290.072807 0.319831 0.316583 238.668667
33.595995 289.465543 0.321174 0.319289 237.399485
34.518108 288.841497 0.323860 0.323115 236.095229
35.450543 288.200479 0.326546 0.326965 234.755501
36.393910 287.542281 0.327889 0.329764 233.379867
37.348870 286.863336 0.329232 0.332207 231.960872
38.316134 286.169648 0.330575 0.335056 230.511064
39.296480 285.458089 0.333261 0.338993 229.023906
40.290752 284.724904 0.333261 0.340433 227.491549
41.299873 283.974253 0.335947 0.344408 225.922689
42.324857 283.205175 0.337290 0.347357 224.315316
43.366822 282.411788 0.338633 0.349910 222.657137
44.427004 281.600807 0.339976 0.352900 220.962187
45.506776 280.767980 0.341319 0.355494 219.221578
46.607672 279.908831 0.342662 0.358521 217.425957
47.731416 279.029769 0.345348 0.362599 215.588717
48.879952 278.121323 0.345348 0.364216 213.690065
50.055495 277.190350 0.346691 0.367294 211.744331
51.260575 276.228478 0.348034 0.369980 209.734019
52.498117 275.238217 0.349377 0.373081 207.664374
53.771523 274.216705 0.350720 0.375805 205.529413
55.084794 273.155479 0.352063 0.378924 203.311451
56.442690 272.059640 0.354749 0.383050 201.021148
57.850948 270.916702 0.414061 0.437287 198.632407
59.316583 269.746111 0.457524 0.476524 196.185872
60.848336 268.552537 0.495937 0.511320 193.691302
62.457325 267.340884 0.545471 0.553966 191.158948
64.158067 266.127262 0.583884 0.586490 188.622478
65.970136 264.916613 0.586570 0.588932 186.092221
67.921031 263.708956 0.589256 0.591308 183.568218
70.051556 262.447718 0.600000 0.600000 180.932231
72.427054 261.296790 0.600000 0.600000 178.526791
75.164888 260.152221 0.600000 0.600000 176.134642
78.521659 259.018420 0.600000 0.600000 173.764998
83.380372 257.888201 0.600000 0.600000 171.402840
