# Use this header for notes and global details
# Name of benchmark/experiment:
# Case number:
# Instellation (S_earth):
# XCO2 (ppm):
# Obliquity (degrees):

# Columns of data (annually averaged for last orbit)
# Lat = latitude (degrees)
# Tsurf = annually averaged surface temperature (K)
# Asurf = annually averaged surface albedo
# ATOA = annually averaged top-of-atmosphere/total/planetary albedo
# OLR = annually averaged outgoing longwave radiation (W m^-2)

# Lat Tsurf Asurf ATOA OLR
-83.380372 302.437005 0.252500 0.309840 265.259840
-78.521659 303.453434 0.250000 0.305276 267.384177
-75.164888 304.456970 0.250000 0.302823 269.481567
-72.427054 305.451987 0.247500 0.298560 271.561153
-70.051556 306.440610 0.245000 0.294370 273.627375
-67.921031 307.423091 0.242500 0.290240 275.680760
-65.970136 308.399450 0.240000 0.286162 277.721351
-64.158067 309.366115 0.236250 0.281184 279.741680
-62.457325 310.326022 0.227500 0.272584 281.747886
-60.848336 311.280287 0.225000 0.268636 283.742300
-59.316583 312.227458 0.225000 0.266556 285.721887
-57.850948 313.165342 0.225000 0.264509 287.682065
-56.442690 314.092741 0.225000 0.262493 289.620329
-55.084794 315.008576 0.225000 0.260509 291.534424
-53.771523 315.911936 0.225000 0.258557 293.422446
-52.498117 316.802071 0.225000 0.256638 295.282828
-51.260575 317.678377 0.225000 0.254750 297.114308
-50.055495 318.540370 0.225000 0.252894 298.915873
-48.879952 319.387668 0.225000 0.251070 300.686726
-47.731416 320.219969 0.225000 0.249279 302.426235
-46.607672 321.037039 0.225000 0.247519 304.133912
-45.506776 321.838702 0.225000 0.245791 305.809387
-44.427004 322.624824 0.225000 0.244095 307.452382
-43.366822 323.395310 0.225000 0.242432 309.062698
-42.324857 324.150095 0.225000 0.240800 310.640199
-41.299873 324.889139 0.225000 0.239200 312.184801
-40.290752 325.612421 0.225000 0.237633 313.696460
-39.296480 326.319939 0.225000 0.236097 315.175173
-38.316134 327.011703 0.225000 0.234593 316.620959
-37.348870 327.687734 0.225000 0.233121 318.033864
-36.393910 328.348062 0.225000 0.231682 319.413950
-35.450543 328.992724 0.225000 0.230274 320.761293
-34.518108 329.621764 0.225000 0.228898 322.075987
-33.595995 330.235227 0.225000 0.227554 323.358124
-32.683639 330.833166 0.225000 0.226243 324.607817
-31.780510 331.415632 0.225000 0.224963 325.825171
-30.886118 331.982682 0.225000 0.223715 327.010305
-30.000000 332.534371 0.225000 0.222500 328.163335
-29.121726 333.070756 0.225000 0.221316 329.284380
-28.250889 333.591895 0.225000 0.220164 330.373561
-27.387108 334.097844 0.225000 0.219044 331.430994
-26.530021 334.588661 0.225000 0.217957 332.456801
-25.679289 335.064400 0.225000 0.216901 333.451096
-24.834587 335.525119 0.225000 0.215877 334.413999
-23.995611 335.970870 0.225000 0.214885 335.345618
-23.162069 336.401707 0.225000 0.213926 336.246068
-22.333683 336.817681 0.225000 0.212998 337.115453
-21.510188 337.218843 0.225000 0.212102 337.953882
-20.691333 337.605242 0.225000 0.211238 338.761456
-19.876874 337.976925 0.225000 0.210407 339.538273
-19.066580 338.333938 0.225000 0.209607 340.284430
-18.260228 338.676325 0.225000 0.208839 341.000019
-17.457603 339.004127 0.225000 0.208103 341.685125
-16.658499 339.317387 0.225000 0.207399 342.339839
-15.862716 339.616142 0.225000 0.206728 342.964237
-15.070062 339.900429 0.225000 0.206088 343.558397
-14.280350 340.170285 0.225000 0.205480 344.122396
-13.493399 340.425742 0.225000 0.204904 344.656301
-12.709033 340.666833 0.225000 0.204361 345.160181
-11.927082 340.893587 0.225000 0.203849 345.634097
-11.147378 341.106032 0.225000 0.203369 346.078107
-10.369760 341.304196 0.225000 0.202921 346.492270
-9.594068 341.488101 0.225000 0.202505 346.876631
-8.820148 341.657773 0.225000 0.202121 347.231246
-8.047846 341.813230 0.225000 0.201770 347.556151
-7.277014 341.954493 0.225000 0.201450 347.851390
-6.507504 342.081580 0.225000 0.201162 348.117002
-5.739170 342.194505 0.225000 0.200906 348.353015
-4.971872 342.293283 0.225000 0.200682 348.559461
-4.205466 342.377926 0.225000 0.200490 348.736365
-3.439813 342.448445 0.225000 0.200331 348.883750
-2.674774 342.504848 0.225000 0.200203 349.001632
-1.910213 342.547142 0.225000 0.200107 349.090027
-1.145992 342.575333 0.225000 0.200043 349.148946
-0.381975 342.589423 0.225000 0.200011 349.178394
0.381975 342.589416 0.225000 0.200011 349.178379
1.145992 342.575309 0.225000 0.200043 349.148896
1.910213 342.547103 0.225000 0.200108 349.089945
2.674774 342.504793 0.225000 0.200204 349.001517
3.439813 342.448374 0.225000 0.200332 348.883602
4.205466 342.377840 0.225000 0.200492 348.736186
4.971872 342.293181 0.225000 0.200684 348.559248
5.739170 342.194386 0.225000 0.200908 348.352767
6.507504 342.081445 0.225000 0.201164 348.116720
7.277014 341.954342 0.225000 0.201452 347.851075
8.047846 341.813063 0.225000 0.201772 347.555802
8.820148 341.657589 0.225000 0.202124 347.230861
9.594068 341.487901 0.225000 0.202508 346.876213
10.369760 341.303979 0.225000 0.202924 346.491816
11.147378 341.105798 0.225000 0.203372 346.077618
11.927082 340.893336 0.225000 0.203853 345.633572
12.709033 340.666565 0.225000 0.204365 345.159621
13.493399 340.425457 0.225000 0.204909 344.655705
14.280350 340.169982 0.225000 0.205485 344.121762
15.070062 339.900108 0.225000 0.206093 343.557726
15.862716 339.615803 0.225000 0.206733 342.963528
16.658499 339.317029 0.225000 0.207405 342.339091
17.457603 339.003751 0.225000 0.208109 341.684340
18.260228 338.675930 0.225000 0.208845 340.999194
19.066580 338.333524 0.225000 0.209613 340.283565
19.876874 337.976492 0.225000 0.210413 339.537368
20.691333 337.604789 0.225000 0.211245 338.760509
21.510188 337.218369 0.225000 0.212108 337.952891
22.333683 336.817186 0.225000 0.213004 337.114419
23.162069 336.401191 0.225000 0.213932 336.244989
23.995611 335.970333 0.225000 0.214892 335.344496
24.834587 335.524560 0.225000 0.215884 334.412830
25.679289 335.063819 0.225000 0.216908 333.449882
26.530021 334.588057 0.225000 0.217964 332.455539
27.387108 334.097217 0.225000 0.219052 331.429684
28.250889 333.591244 0.225000 0.220172 330.372200
29.121726 333.070081 0.225000 0.221324 329.282969
30.000000 332.533671 0.225000 0.222508 328.161872
30.886118 331.981956 0.225000 0.223724 327.008788
31.780510 331.414880 0.225000 0.224971 325.823599
32.683639 330.832387 0.225000 0.226251 324.606189
33.595995 330.234421 0.225000 0.227563 323.356440
34.518108 329.620929 0.225000 0.228907 322.074242
35.450543 328.991860 0.225000 0.230283 320.759487
36.393910 328.347167 0.225000 0.231691 319.412079
37.348870 327.686808 0.225000 0.233130 318.031929
38.316134 327.010745 0.225000 0.234602 316.618957
39.296480 326.318948 0.225000 0.236106 315.173101
40.290752 325.611395 0.225000 0.237642 313.694316
41.299873 324.888077 0.225000 0.239210 312.182581
42.324857 324.148996 0.225000 0.240809 310.637902
43.366822 323.394172 0.225000 0.242441 309.060319
44.427004 322.623646 0.225000 0.244105 307.449920
45.506776 321.837481 0.225000 0.245801 305.806835
46.607672 321.035775 0.225000 0.247528 304.131270
47.731416 320.218658 0.225000 0.249288 302.423495
48.879952 319.386308 0.225000 0.251080 300.683884
50.055495 318.538959 0.225000 0.252903 298.912924
51.260575 317.676910 0.225000 0.254759 297.111242
52.498117 316.800545 0.225000 0.256647 295.279639
53.771523 315.910347 0.225000 0.258566 293.419125
55.084794 315.006919 0.225000 0.260518 291.530961
56.442690 314.091010 0.225000 0.262502 289.616711
57.850948 313.163529 0.225000 0.264517 287.678276
59.316583 312.225555 0.225000 0.266565 285.717910
60.848336 311.278281 0.225000 0.268644 283.738107
62.457325 310.322667 0.225000 0.270756 281.740874
64.158067 309.363624 0.236250 0.281190 279.736474
65.970136 308.396889 0.240000 0.286167 277.715998
67.921031 307.420420 0.242500 0.290246 275.675178
70.051556 306.437782 0.245000 0.294377 273.621464
72.427054 305.448949 0.247500 0.298568 271.554803
75.164888 304.453555 0.250000 0.302831 269.474430
78.521659 303.448671 0.250000 0.305284 267.374222
83.380372 302.429855 0.252500 0.309845 265.244897
