# Use this header for notes and global details
# Name of benchmark/experiment:
# Case number:
# Instellation (S_earth):
# XCO2 (ppm):
# Obliquity (degrees):

# Columns of data (annually averaged for last orbit)
# Lat = latitude (degrees)
# Tsurf = annually averaged surface temperature (K)
# Asurf = annually averaged surface albedo
# ATOA = annually averaged top-of-atmosphere/total/planetary albedo
# OLR = annually averaged outgoing longwave radiation (W m^-2)

# Lat Tsurf Asurf ATOA OLR
-83.380372 317.671561 0.257500 0.274906 297.100062
-78.521659 317.144624 0.257500 0.274460 295.998764
-75.164888 316.608715 0.257500 0.274165 294.878714
-72.427054 316.067871 0.257500 0.273937 293.748350
-70.051556 315.524630 0.257500 0.273749 292.612977
-67.921031 314.980567 0.257500 0.273589 291.475885
-65.970136 314.436780 0.257500 0.273452 290.339370
-64.158067 313.894282 0.257500 0.273332 289.205549
-62.457325 313.353810 0.257500 0.273227 288.075963
-60.848336 312.816425 0.257500 0.273134 286.952828
-59.316583 312.282886 0.257500 0.273052 285.837732
-57.850948 311.753056 0.257500 0.272980 284.730387
-56.442690 311.227287 0.257500 0.272916 283.631530
-55.084794 310.705900 0.257500 0.272860 282.541831
-53.771523 310.189216 0.257500 0.272812 281.461961
-52.498117 309.677551 0.257500 0.272769 280.392582
-51.260575 309.171156 0.257500 0.272733 279.334216
-50.055495 308.669962 0.256250 0.271383 278.286721
-48.879952 308.171862 0.256250 0.271350 277.245692
-47.731416 307.679004 0.256250 0.271322 276.215618
-46.607672 307.189757 0.256250 0.271299 275.193092
-45.506776 306.709208 0.256250 0.271281 274.188745
-44.427004 306.235831 0.256250 0.271267 273.199387
-43.366822 305.768726 0.256250 0.271258 272.223137
-42.324857 305.308079 0.256250 0.271253 271.260385
-41.299873 304.854083 0.256250 0.271251 270.311533
-40.290752 304.406225 0.253750 0.268989 269.375510
-39.296480 303.962791 0.253750 0.268990 268.448733
-38.316134 303.525944 0.253750 0.268994 267.535723
-37.348870 303.095695 0.253750 0.269001 266.636503
-36.393910 302.675377 0.253750 0.269012 265.758038
-35.450543 302.262323 0.253750 0.269025 264.894755
-34.518108 301.856696 0.253750 0.269042 264.046995
-33.595995 301.458639 0.253750 0.269061 263.215056
-32.683639 301.065196 0.252500 0.267733 262.392760
-31.780510 300.678933 0.252500 0.267752 261.585470
-30.886118 300.301596 0.252500 0.267773 260.796836
-30.000000 299.933957 0.252500 0.267798 260.028470
-29.121726 299.574341 0.252500 0.267824 259.276873
-28.250889 299.222899 0.252500 0.267853 258.542359
-27.387108 298.874649 0.250000 0.265621 257.814516
-26.530021 298.536186 0.250000 0.265649 257.107129
-25.679289 298.209209 0.250000 0.265679 256.423747
-24.834587 297.890728 0.250000 0.265711 255.758122
-23.995611 297.580786 0.248750 0.264415 255.110343
-23.162069 297.275540 0.248750 0.264446 254.472379
-22.333683 296.979193 0.248750 0.264478 253.853013
-21.510188 296.695228 0.248750 0.264513 253.259527
-20.691333 296.420289 0.248750 0.264550 252.684904
-19.876874 296.152883 0.247500 0.263271 252.126025
-19.066580 295.890340 0.246250 0.262385 251.577311
-18.260228 295.642660 0.246250 0.262421 251.059659
-17.457603 295.404417 0.246250 0.262458 250.561732
-16.658499 295.172983 0.245000 0.261199 250.078034
-15.862716 294.949715 0.245000 0.261234 249.611404
-15.070062 294.740086 0.245000 0.261270 249.173280
-14.280350 294.540306 0.245000 0.261308 248.755740
-13.493399 294.345981 0.243750 0.260071 248.349600
-12.709033 294.163790 0.242500 0.259185 247.968821
-11.927082 293.993916 0.242500 0.259221 247.613784
-11.147378 293.829727 0.241250 0.258010 247.270629
-10.369760 293.678700 0.241250 0.258042 246.954983
-9.594068 293.539728 0.241250 0.258075 246.664532
-8.820148 293.406439 0.240000 0.256893 246.385958
-8.047846 293.287168 0.238750 0.256003 246.136681
-7.277014 293.177204 0.237500 0.254854 245.906856
-6.507504 293.077926 0.237500 0.254878 245.699365
-5.739170 292.992252 0.237500 0.254904 245.520307
-4.971872 292.912208 0.235000 0.252866 245.353015
-4.205466 292.847495 0.233750 0.251784 245.217765
-3.439813 292.791154 0.233750 0.251799 245.100012
-2.674774 292.745546 0.231250 0.249831 245.004691
-1.910213 292.711293 0.227500 0.246921 244.933102
-1.145992 292.688269 0.225000 0.245035 244.884982
-0.381975 292.677767 0.225000 0.245031 244.863033
0.381975 292.678367 0.225000 0.245027 244.864287
1.145992 292.690070 0.225000 0.245023 244.888746
1.910213 292.714085 0.227500 0.246904 244.938938
2.674774 292.750074 0.231250 0.249812 245.014155
3.439813 292.796670 0.233750 0.251769 245.111540
4.205466 292.854042 0.233750 0.251744 245.231448
4.971872 292.919996 0.235000 0.252814 245.369292
5.739170 293.001150 0.237500 0.254845 245.538904
6.507504 293.088067 0.237500 0.254812 245.720560
7.277014 293.189040 0.237500 0.254780 245.931594
8.047846 293.299714 0.238750 0.255919 246.162902
8.820148 293.420959 0.240000 0.256802 246.416304
9.594068 293.554750 0.241250 0.257974 246.695927
10.369760 293.694979 0.241250 0.257934 246.989006
11.147378 293.848078 0.241250 0.257895 247.308983
11.927082 294.012638 0.242500 0.259095 247.652913
12.709033 294.183766 0.242500 0.259053 248.010571
13.493399 294.368145 0.243750 0.259933 248.395923
14.280350 294.562941 0.245000 0.261167 248.803047
15.070062 294.763974 0.245000 0.261123 249.223206
15.862716 294.974945 0.245000 0.261080 249.664135
16.658499 295.199992 0.245000 0.261039 250.134483
17.457603 295.432190 0.246250 0.262295 250.619777
18.260228 295.671676 0.246250 0.262252 251.120303
19.066580 295.920595 0.246250 0.262211 251.640544
19.876874 296.184483 0.247500 0.263092 252.192069
20.691333 296.453114 0.248750 0.264368 252.753508
21.510188 296.729280 0.248750 0.264326 253.330695
22.333683 297.014468 0.248750 0.264286 253.926738
23.162069 297.311741 0.248750 0.264248 254.548039
23.995611 297.618189 0.248750 0.264212 255.188515
24.834587 297.929721 0.250000 0.265506 255.839617
25.679289 298.249404 0.250000 0.265469 256.507754
26.530021 298.577577 0.250000 0.265435 257.193636
27.387108 298.918266 0.251250 0.266321 257.905676
28.250889 299.266249 0.251250 0.266290 258.632960
29.121726 299.619033 0.252500 0.267600 259.370279
30.000000 299.979525 0.252500 0.267569 260.123707
30.886118 300.348027 0.252500 0.267541 260.893876
31.780510 300.725393 0.252500 0.267516 261.682571
32.683639 301.112486 0.252500 0.267494 262.491596
33.595995 301.506931 0.252500 0.267475 263.315986
34.518108 301.906591 0.253750 0.268799 264.151275
35.450543 302.312643 0.253750 0.268780 264.999924
36.393910 302.726099 0.253750 0.268764 265.864047
37.348870 303.146793 0.253750 0.268751 266.743297
38.316134 303.574553 0.253750 0.268742 267.637316
39.296480 304.013115 0.253750 0.268736 268.553910
40.290752 304.458554 0.255000 0.269653 269.484878
41.299873 304.906638 0.256250 0.270991 270.421373
42.324857 305.360849 0.256250 0.270991 271.370674
43.366822 305.821679 0.256250 0.270996 272.333809
44.427004 306.288938 0.256250 0.271005 273.310380
45.506776 306.762435 0.256250 0.271018 274.299989
46.607672 307.241985 0.256250 0.271036 275.302249
47.731416 307.731188 0.256250 0.271060 276.324683
48.879952 308.224163 0.256250 0.271089 277.355001
50.055495 308.722357 0.256250 0.271124 278.396226
51.260575 309.224554 0.257500 0.272473 279.445818
52.498117 309.730921 0.257500 0.272511 280.504125
53.771523 310.242519 0.257500 0.272556 281.573365
55.084794 310.759098 0.257500 0.272609 282.653015
56.442690 311.280344 0.257500 0.272669 283.742419
57.850948 311.805932 0.257500 0.272738 284.840898
59.316583 312.335541 0.257500 0.272816 285.947781
60.848336 312.868820 0.257500 0.272905 287.062334
62.457325 313.406032 0.257500 0.273005 288.185107
64.158067 313.946194 0.257500 0.273120 289.314045
65.970136 314.488336 0.257500 0.273250 290.447122
67.921031 315.031725 0.257500 0.273400 291.582805
70.051556 315.575340 0.257500 0.273574 292.718961
72.427054 316.118076 0.257500 0.273779 293.853279
75.164888 316.658333 0.257500 0.274028 294.982416
78.521659 317.193560 0.257500 0.274350 296.101040
83.380372 317.719688 0.257500 0.274839 297.200648
