# Use this header for notes and global details
# Name of benchmark/experiment:
# Case number:
# Instellation (S_earth):
# XCO2 (ppm):
# Obliquity (degrees):

# Columns of data (annually averaged for last orbit)
# Lat = latitude (degrees)
# Tsurf = annually averaged surface temperature (K)
# Asurf = annually averaged surface albedo
# ATOA = annually averaged top-of-atmosphere/total/planetary albedo
# OLR = annually averaged outgoing longwave radiation (W m^-2)

# Lat Tsurf Asurf ATOA OLR
-83.380372 308.768807 0.262500 0.280784 278.493307
-78.521659 308.312666 0.262500 0.280185 277.539972
-75.164888 307.846761 0.262500 0.279767 276.566230
-72.427054 307.375114 0.262500 0.279428 275.580488
-70.051556 306.900348 0.262500 0.279138 274.588227
-67.921031 306.423986 0.262500 0.278883 273.592631
-65.970136 305.947166 0.262500 0.278655 272.596077
-64.158067 305.470907 0.262500 0.278448 271.600696
-62.457325 304.995912 0.262500 0.278260 270.607956
-60.848336 304.522767 0.262500 0.278088 269.619083
-59.316583 304.052039 0.262500 0.277930 268.635262
-57.850948 303.584197 0.262500 0.277784 267.657472
-56.442690 303.119604 0.262500 0.277649 266.686472
-55.084794 302.658605 0.262500 0.277524 265.722984
-53.771523 302.201549 0.262500 0.277409 264.767737
-52.498117 301.748737 0.262500 0.277302 263.821360
-51.260575 301.300414 0.262500 0.277204 262.884365
-50.055495 300.856809 0.262500 0.277113 261.957231
-48.879952 300.418155 0.262500 0.277029 261.040444
-47.731416 299.984685 0.261250 0.276035 260.134492
-46.607672 299.556601 0.261250 0.275964 259.239796
-45.506776 299.134077 0.261250 0.275898 258.356721
-44.427004 298.716478 0.260000 0.274434 257.483939
-43.366822 298.303496 0.260000 0.274376 256.620807
-42.324857 297.895939 0.260000 0.274324 255.769013
-41.299873 297.494014 0.260000 0.274277 254.928989
-40.290752 297.097901 0.260000 0.274235 254.101113
-39.296480 296.709194 0.260000 0.274197 253.288715
-38.316134 296.327064 0.260000 0.274164 252.490064
-37.348870 295.951379 0.260000 0.274136 251.704882
-36.393910 295.582310 0.260000 0.274112 250.933528
-35.450543 295.220011 0.260000 0.274092 250.176323
-34.518108 294.864619 0.260000 0.274076 249.433554
-33.595995 294.516229 0.258750 0.272650 248.705419
-32.683639 294.170210 0.257500 0.271706 247.982239
-31.780510 293.832849 0.257500 0.271697 247.277154
-30.886118 293.505048 0.257500 0.271693 246.592050
-30.000000 293.184535 0.257500 0.271691 245.922178
-29.121726 292.871447 0.257500 0.271694 245.267824
-28.250889 292.565919 0.257500 0.271699 244.629271
-27.387108 292.266555 0.256250 0.270294 244.003600
-26.530021 291.972569 0.256250 0.270305 243.389169
-25.679289 291.687991 0.256250 0.270320 242.794401
-24.834587 291.412873 0.256250 0.270337 242.219405
-23.995611 291.145733 0.256250 0.270358 241.661082
-23.162069 290.885435 0.253750 0.268024 241.117059
-22.333683 290.630102 0.253750 0.268047 240.583413
-21.510188 290.386163 0.253750 0.268072 240.073581
-20.691333 290.151193 0.253750 0.268100 239.582493
-19.876874 289.924615 0.253750 0.268131 239.108945
-19.066580 289.703112 0.252500 0.266759 238.646004
-18.260228 289.491032 0.252500 0.266793 238.202757
-17.457603 289.289740 0.252500 0.266831 237.782057
-16.658499 289.097128 0.252500 0.266872 237.379498
-15.862716 288.909262 0.251250 0.265516 236.986858
-15.070062 288.732173 0.250000 0.264602 236.616742
-14.280350 288.565726 0.250000 0.264645 236.268867
-13.493399 288.406756 0.248750 0.263304 235.936620
-12.709033 288.253639 0.248750 0.263348 235.616606
-11.927082 288.113783 0.248750 0.263396 235.324306
-11.147378 287.982340 0.247500 0.262075 235.049591
-10.369760 287.855441 0.247500 0.262124 234.784372
-9.594068 287.742566 0.246250 0.261219 234.548463
-8.820148 287.635934 0.245000 0.259918 234.325602
-8.047846 287.538622 0.245000 0.259966 234.122220
-7.277014 287.452809 0.245000 0.260017 233.942871
-6.507504 287.371124 0.243750 0.258742 233.772149
-5.739170 287.302765 0.242500 0.257843 233.629279
-4.971872 287.239704 0.241250 0.256594 233.497481
-4.205466 287.188347 0.241250 0.256641 233.390145
-3.439813 287.144236 0.240000 0.255424 233.297953
-2.674774 287.109184 0.238750 0.254527 233.224695
-1.910213 287.082067 0.240000 0.255290 233.168020
-1.145992 287.068009 0.243750 0.258341 233.138639
-0.381975 287.058333 0.243750 0.258262 233.118416
0.381975 287.058925 0.243750 0.258258 233.119653
1.145992 287.070175 0.243750 0.258322 233.143166
1.910213 287.084084 0.240000 0.255279 233.172236
2.674774 287.111190 0.238750 0.254516 233.228887
3.439813 287.147464 0.240000 0.255414 233.304700
4.205466 287.191568 0.241250 0.256627 233.396877
4.971872 287.244267 0.241250 0.256580 233.507018
5.739170 287.307206 0.242500 0.257826 233.638561
6.507504 287.376963 0.243750 0.258726 233.784353
7.277014 287.458618 0.245000 0.260005 233.955012
8.047846 287.545038 0.245000 0.259954 234.135629
8.820148 287.643450 0.245000 0.259906 234.341310
9.594068 287.750276 0.246250 0.261209 234.564577
10.369760 287.863749 0.247500 0.262117 234.801735
11.147378 287.991384 0.247500 0.262068 235.068493
11.927082 288.123341 0.248750 0.263391 235.344283
12.709033 288.263786 0.248750 0.263343 235.637813
13.493399 288.417375 0.248750 0.263299 235.958814
14.280350 288.577081 0.250000 0.264642 236.292599
15.070062 288.744107 0.250000 0.264600 236.641684
15.862716 288.921468 0.251250 0.265515 237.012368
16.658499 289.110224 0.252500 0.266873 237.406868
17.457603 289.303401 0.252500 0.266833 237.810608
18.260228 289.505251 0.252500 0.266795 238.232475
19.066580 289.717350 0.252500 0.266760 238.675761
19.876874 289.939933 0.253750 0.268134 239.140960
20.691333 290.167050 0.253750 0.268104 239.615634
21.510188 290.402549 0.253750 0.268076 240.107827
22.333683 290.646331 0.253750 0.268050 240.617332
23.162069 290.903803 0.255000 0.268976 241.155448
23.995611 291.163550 0.256250 0.270364 241.698320
24.834587 291.431181 0.256250 0.270343 242.257668
25.679289 291.706780 0.256250 0.270325 242.833670
26.530021 291.991300 0.256250 0.270310 243.428317
27.387108 292.285733 0.256250 0.270299 244.043682
28.250889 292.586029 0.257500 0.271704 244.671301
29.121726 292.891988 0.257500 0.271698 245.310755
30.000000 293.205489 0.257500 0.271696 245.965972
30.886118 293.526401 0.257500 0.271697 246.636678
31.780510 293.854583 0.257500 0.271702 247.322578
32.683639 294.192040 0.257500 0.271710 248.027864
33.595995 294.538399 0.258750 0.272653 248.751754
34.518108 294.887391 0.260000 0.274078 249.481147
35.450543 295.243087 0.260000 0.274094 250.224552
36.393910 295.605671 0.260000 0.274113 250.982352
37.348870 295.975006 0.260000 0.274137 251.754263
38.316134 296.350937 0.260000 0.274165 252.539958
39.296480 296.733296 0.260000 0.274198 253.339089
40.290752 297.122370 0.260000 0.274235 254.152253
41.299873 297.518685 0.260000 0.274277 254.980552
42.324857 297.920793 0.260000 0.274324 255.820957
43.366822 298.328515 0.260000 0.274377 256.673096
44.427004 298.741646 0.260000 0.274434 257.536540
45.506776 299.159114 0.261250 0.275896 258.409048
46.607672 299.581737 0.261250 0.275962 259.292330
47.731416 300.009903 0.261250 0.276033 260.187197
48.879952 300.443442 0.262500 0.277026 261.093294
50.055495 300.882151 0.262500 0.277110 262.010196
51.260575 301.325800 0.262500 0.277201 262.937422
52.498117 301.774156 0.262500 0.277299 263.874486
53.771523 302.226992 0.262500 0.277405 264.820913
55.084794 302.684066 0.262500 0.277520 265.776198
56.442690 303.145079 0.262500 0.277645 266.739715
57.850948 303.609685 0.262500 0.277780 267.710742
59.316583 304.077542 0.262500 0.277926 268.688563
60.848336 304.548290 0.262500 0.278084 269.672426
62.457325 305.021465 0.262500 0.278256 270.661362
64.158067 305.496504 0.262500 0.278444 271.654193
65.970136 305.972825 0.262500 0.278650 272.649704
67.921031 306.449734 0.262500 0.278878 273.646444
70.051556 306.926219 0.262500 0.279133 274.642298
72.427054 307.401148 0.262500 0.279423 275.634899
75.164888 307.872996 0.262500 0.279762 276.621062
78.521659 308.339155 0.262500 0.280180 277.595334
83.380372 308.795614 0.262500 0.280779 278.549333
