# Use this header for notes and global details
# Name of benchmark/experiment:
# Case number:
# Instellation (S_earth):
# XCO2 (ppm):
# Obliquity (degrees):

# Columns of data (annually averaged for last orbit)
# Lat = latitude (degrees)
# Tsurf = annually averaged surface temperature (K)
# Asurf = annually averaged surface albedo
# ATOA = annually averaged top-of-atmosphere/total/planetary albedo
# OLR = annually averaged outgoing longwave radiation (W m^-2)

# Lat Tsurf Asurf ATOA OLR
-83.380372 269.389114 0.568750 0.570053 196.189748
-78.521659 269.074522 0.568750 0.569370 195.532251
-75.164888 268.758222 0.568750 0.568921 194.871184
-72.427054 268.441107 0.568750 0.568575 194.208414
-70.051556 268.124177 0.568750 0.568291 193.546030
-67.921031 267.807873 0.568750 0.568050 192.884955
-65.970136 267.492611 0.568750 0.567844 192.226057
-64.158067 267.178656 0.568750 0.567665 191.569891
-62.457325 266.866196 0.567500 0.566574 190.916850
-60.848336 266.555425 0.567500 0.566430 190.267338
-59.316583 266.246522 0.567500 0.566304 189.621731
-57.850948 265.939601 0.567500 0.566191 188.980266
-56.442690 265.634790 0.567500 0.566092 188.343211
-55.084794 265.332236 0.567500 0.566005 187.710873
-53.771523 265.032054 0.567500 0.565928 187.083493
-52.498117 264.734332 0.567500 0.565861 186.461254
-51.260575 264.439166 0.567500 0.565803 185.844357
-50.055495 264.146658 0.568750 0.567164 185.233015
-48.879952 263.857980 0.568750 0.567125 184.629678
-47.731416 263.573082 0.568750 0.567092 184.034241
-46.607672 263.291936 0.568750 0.567066 183.446646
-45.506776 263.014542 0.568750 0.567045 182.866893
-44.427004 262.740916 0.568750 0.567031 182.295014
-43.366822 262.471076 0.567500 0.566018 181.731049
-42.324857 262.204959 0.567500 0.566007 181.174864
-41.299873 261.942584 0.567500 0.566002 180.626501
-40.290752 261.683983 0.567500 0.566001 180.086024
-39.296480 261.429188 0.567500 0.566004 179.553503
-38.316134 261.178227 0.567500 0.566012 179.028994
-37.348870 260.931122 0.568750 0.567420 178.512545
-36.393910 260.688511 0.568750 0.567433 178.005488
-35.450543 260.450387 0.568750 0.567449 177.507809
-34.518108 260.216758 0.568750 0.567468 177.019524
-33.595995 259.987619 0.568750 0.567491 176.540624
-32.683639 259.762969 0.568750 0.567516 176.071105
-31.780510 259.542809 0.568750 0.567545 175.610971
-30.886118 259.327152 0.568750 0.567577 175.160248
-30.000000 259.116013 0.568750 0.567612 174.718967
-29.121726 258.909409 0.570000 0.568974 174.287165
-28.250889 258.707754 0.570000 0.569008 173.865706
-27.387108 258.511035 0.570000 0.569045 173.454563
-26.530021 258.319246 0.568750 0.567999 173.053724
-25.679289 258.132282 0.568750 0.568033 172.662969
-24.834587 257.950129 0.568750 0.568069 172.282270
-23.995611 257.772771 0.570000 0.569361 171.911591
-23.162069 257.600505 0.570000 0.569395 171.551555
-22.333683 257.433305 0.570000 0.569430 171.202107
-21.510188 257.271140 0.570000 0.569468 170.863183
-20.691333 257.113971 0.571250 0.570700 170.534699
-19.876874 256.962012 0.571250 0.570734 170.217105
-19.066580 256.815193 0.571250 0.570770 169.910253
-18.260228 256.673430 0.572500 0.571944 169.613969
-17.457603 256.536844 0.572500 0.571977 169.328504
-16.658499 256.405332 0.573750 0.573106 169.053644
-15.862716 256.278975 0.575000 0.574223 168.789558
-15.070062 256.157840 0.576250 0.575335 168.536386
-14.280350 256.041985 0.577500 0.576453 168.294249
-13.493399 255.931462 0.578750 0.577591 168.063256
-12.709033 255.826331 0.580000 0.578750 167.843532
-11.927082 255.726658 0.581250 0.579944 167.635215
-11.147378 255.632520 0.582500 0.581165 167.438467
-10.369760 255.544004 0.582500 0.581160 167.253468
-9.594068 255.460991 0.583750 0.582405 167.079971
-8.820148 255.383583 0.585000 0.583687 166.918188
-8.047846 255.311899 0.585000 0.583676 166.768369
-7.277014 255.245834 0.586250 0.584980 166.630293
-6.507504 255.185524 0.587500 0.586316 166.504245
-5.739170 255.131120 0.587500 0.586300 166.390541
-4.971872 255.082533 0.590000 0.588922 166.288994
-4.205466 255.040107 0.591250 0.590300 166.200324
-3.439813 255.004026 0.591250 0.590287 166.124914
-2.674774 254.974227 0.592500 0.591679 166.062634
-1.910213 254.950912 0.600000 0.600000 166.013906
-1.145992 254.935460 0.600000 0.600000 165.981611
-0.381975 254.927847 0.600000 0.600000 165.965700
0.381975 254.928061 0.600000 0.600000 165.966147
1.145992 254.936101 0.600000 0.600000 165.982951
1.910213 254.951980 0.600000 0.600000 166.016138
2.674774 254.975723 0.592500 0.591679 166.065761
3.439813 255.005951 0.591250 0.590287 166.128938
4.205466 255.042462 0.591250 0.590300 166.205246
4.971872 255.085319 0.590000 0.588922 166.294817
5.739170 255.134338 0.587500 0.586300 166.397266
6.507504 255.189177 0.587500 0.586316 166.511880
7.277014 255.249924 0.586250 0.584980 166.638841
8.047846 255.316427 0.585000 0.583676 166.777832
8.820148 255.388551 0.585000 0.583687 166.928572
9.594068 255.466402 0.583750 0.582405 167.091280
10.369760 255.549861 0.582500 0.581160 167.265709
11.147378 255.638826 0.582500 0.581165 167.451646
11.927082 255.733415 0.581250 0.579944 167.649337
12.709033 255.833543 0.580000 0.578750 167.858605
13.493399 255.939131 0.578750 0.577591 168.079284
14.280350 256.050115 0.577500 0.576453 168.311240
15.070062 256.166436 0.576250 0.575335 168.554351
15.862716 256.288040 0.575000 0.574223 168.808504
16.658499 256.414869 0.573750 0.573106 169.073576
17.457603 256.546859 0.572500 0.571968 169.349435
18.260228 256.683924 0.572500 0.571935 169.635901
19.066580 256.826170 0.571250 0.570761 169.933195
19.876874 256.973474 0.571250 0.570725 170.241061
20.691333 257.125921 0.571250 0.570691 170.559675
21.510188 257.283581 0.570000 0.569459 170.889184
22.333683 257.446240 0.570000 0.569421 171.229142
23.162069 257.613937 0.570000 0.569386 171.579628
23.995611 257.786704 0.570000 0.569352 171.940711
24.834587 257.964566 0.568750 0.568060 172.312443
25.679289 258.147226 0.568750 0.568024 172.694202
26.530021 258.334700 0.568750 0.567990 173.086023
27.387108 258.527002 0.570000 0.569036 173.487934
28.250889 258.724238 0.570000 0.568999 173.900157
29.121726 258.926412 0.570000 0.568965 174.322701
30.000000 259.133540 0.568750 0.567603 174.755599
30.886118 259.345205 0.568750 0.567568 175.197978
31.780510 259.561392 0.568750 0.567536 175.649809
32.683639 259.782085 0.568750 0.567508 176.111058
33.595995 260.007272 0.568750 0.567482 176.581698
34.518108 260.236950 0.568750 0.567459 177.061726
35.450543 260.471123 0.568750 0.567440 177.551147
36.393910 260.709792 0.568750 0.567424 178.049965
37.348870 260.952952 0.568750 0.567412 178.558170
38.316134 261.200610 0.567500 0.566004 179.075775
39.296480 261.452127 0.567500 0.565996 179.601445
40.290752 261.707480 0.567500 0.565993 180.135133
41.299873 261.966644 0.567500 0.565994 180.676786
42.324857 262.229583 0.567500 0.566000 181.226328
43.366822 262.496267 0.567500 0.566011 181.783698
44.427004 262.766678 0.568750 0.567024 182.348857
45.506776 263.040878 0.568750 0.567039 182.921935
46.607672 263.318849 0.568750 0.567059 183.502894
47.731416 263.600573 0.568750 0.567086 184.091698
48.879952 263.886053 0.568750 0.567119 184.688351
50.055495 264.175316 0.568750 0.567159 185.292910
51.260575 264.468411 0.567500 0.565797 185.905479
52.498117 264.764166 0.567500 0.565856 186.523607
53.771523 265.062481 0.567500 0.565923 187.147085
55.084794 265.363257 0.567500 0.566000 187.775707
56.442690 265.666407 0.567500 0.566088 188.409291
57.850948 265.971817 0.567500 0.566188 189.047598
59.316583 266.279339 0.567500 0.566301 189.690319
60.848336 266.588844 0.567500 0.566428 190.337184
62.457325 266.900219 0.567500 0.566571 190.987958
64.158067 267.213283 0.568750 0.567663 191.642261
65.970136 267.527844 0.568750 0.567843 192.299694
67.921031 267.843713 0.568750 0.568050 192.959860
70.051556 268.160624 0.568750 0.568291 193.622204
72.427054 268.478161 0.568750 0.568576 194.285856
75.164888 268.795881 0.568750 0.568923 194.949891
78.521659 269.112784 0.568750 0.569373 195.612219
83.380372 269.427974 0.568750 0.570057 196.270966
