# Use this header for notes and global details
# Name of benchmark/experiment:
# Case number:
# Instellation (S_earth):
# XCO2 (ppm):
# Obliquity (degrees):

# Columns of data (annually averaged for last orbit)
# Lat = latitude (degrees)
# Tsurf = annually averaged surface temperature (K)
# Asurf = annually averaged surface albedo
# ATOA = annually averaged top-of-atmosphere/total/planetary albedo
# OLR = annually averaged outgoing longwave radiation (W m^-2)

# Lat Tsurf Asurf ATOA OLR
-83.380372 275.042165 0.276250 0.335081 208.004625
-78.521659 276.380428 0.273750 0.330485 210.801595
-75.164888 277.707268 0.271250 0.325972 213.574690
-72.427054 279.027055 0.271250 0.323504 216.333045
-70.051556 280.326960 0.268750 0.319063 219.049846
-67.921031 281.611179 0.266250 0.314642 221.733864
-65.970136 282.876353 0.265000 0.311181 224.378078
-64.158067 284.125642 0.262500 0.306802 226.989092
-62.457325 285.348985 0.261250 0.303561 229.545879
-60.848336 286.548328 0.258750 0.299228 232.052506
-59.316583 287.724638 0.257500 0.295867 234.510993
-57.850948 288.877712 0.255000 0.291582 236.920918
-56.442690 290.007597 0.252500 0.287324 239.282378
-55.084794 291.114423 0.250000 0.283091 241.595644
-53.771523 292.198524 0.247500 0.278885 243.861415
-52.498117 293.259103 0.243750 0.273620 246.078025
-51.260575 294.294569 0.241250 0.269470 248.242149
-50.055495 295.308265 0.236250 0.263312 250.360774
-48.879952 296.296843 0.225000 0.252145 252.426902
-47.731416 297.266385 0.225000 0.250037 254.453245
-46.607672 298.213077 0.225000 0.247966 256.431831
-45.506776 299.137409 0.225000 0.245933 258.363685
-44.427004 300.039832 0.225000 0.243938 260.249749
-43.366822 300.920767 0.225000 0.241981 262.090903
-42.324857 301.780602 0.225000 0.240061 263.887958
-41.299873 302.619699 0.225000 0.238178 265.641671
-40.290752 303.438394 0.225000 0.236334 267.352743
-39.296480 304.237005 0.225000 0.234527 269.021840
-38.316134 305.015824 0.225000 0.232757 270.649572
-37.348870 305.775129 0.225000 0.231026 272.236520
-36.393910 306.515178 0.225000 0.229332 273.783222
-35.450543 307.236214 0.225000 0.227675 275.290187
-34.518108 307.938467 0.225000 0.226056 276.757896
-33.595995 308.622152 0.225000 0.224475 278.186798
-32.683639 309.287472 0.225000 0.222932 279.577316
-31.780510 309.934618 0.225000 0.221426 280.929852
-30.886118 310.563771 0.225000 0.219958 282.244781
-30.000000 311.175101 0.225000 0.218527 283.522461
-29.121726 311.768769 0.225000 0.217135 284.763227
-28.250889 312.344927 0.225000 0.215779 285.967397
-27.387108 312.903719 0.225000 0.214462 287.135273
-26.530021 313.445282 0.225000 0.213182 288.267139
-25.679289 313.969743 0.225000 0.211940 289.363263
-24.834587 314.477224 0.225000 0.210735 290.423898
-23.995611 314.967842 0.225000 0.209568 291.449290
-23.162069 315.441704 0.225000 0.208439 292.439661
-22.333683 315.898914 0.225000 0.207347 293.395230
-21.510188 316.339569 0.225000 0.206293 294.316199
-20.691333 316.763762 0.225000 0.205277 295.202763
-19.876874 317.171580 0.225000 0.204298 296.055102
-19.066580 317.563105 0.225000 0.203357 296.873389
-18.260228 317.938414 0.225000 0.202453 297.657785
-17.457603 318.297582 0.225000 0.201588 298.408446
-16.658499 318.640677 0.225000 0.200759 299.125515
-15.862716 318.967764 0.225000 0.199969 299.809127
-15.070062 319.278904 0.225000 0.199216 300.459409
-14.280350 319.574156 0.225000 0.198501 301.076486
-13.493399 319.853572 0.225000 0.197823 301.660465
-12.709033 320.117203 0.225000 0.197183 302.211454
-11.927082 320.365096 0.225000 0.196581 302.729551
-11.147378 320.597295 0.225000 0.196017 303.214847
-10.369760 320.813840 0.225000 0.195490 303.667426
-9.594068 321.014769 0.225000 0.195000 304.087367
-8.820148 321.200116 0.225000 0.194549 304.474742
-8.047846 321.369913 0.225000 0.194135 304.829618
-7.277014 321.524188 0.225000 0.193758 305.152053
-6.507504 321.662968 0.225000 0.193419 305.442103
-5.739170 321.786276 0.225000 0.193118 305.699817
-4.971872 321.894131 0.225000 0.192855 305.925234
-4.205466 321.986553 0.225000 0.192629 306.118396
-3.439813 322.063555 0.225000 0.192441 306.279330
-2.674774 322.125151 0.225000 0.192290 306.408066
-1.910213 322.171351 0.225000 0.192178 306.504624
-1.145992 322.202163 0.225000 0.192102 306.569021
-0.381975 322.217591 0.225000 0.192065 306.601265
0.381975 322.217638 0.225000 0.192065 306.601363
1.145992 322.202304 0.225000 0.192103 306.569315
1.910213 322.171587 0.225000 0.192178 306.505117
2.674774 322.125481 0.225000 0.192291 306.408755
3.439813 322.063979 0.225000 0.192442 306.280216
4.205466 321.987071 0.225000 0.192630 306.119478
4.971872 321.894745 0.225000 0.192856 305.926517
5.739170 321.786985 0.225000 0.193120 305.701299
6.507504 321.663774 0.225000 0.193421 305.443788
7.277014 321.525090 0.225000 0.193760 305.153938
8.047846 321.370912 0.225000 0.194136 304.831706
8.820148 321.201212 0.225000 0.194550 304.477033
9.594068 321.015963 0.225000 0.195002 304.089863
10.369760 320.815133 0.225000 0.195492 303.670128
11.147378 320.598688 0.225000 0.196019 303.217758
11.927082 320.366589 0.225000 0.196584 302.732671
12.709033 320.118798 0.225000 0.197186 302.214788
13.493399 319.855269 0.225000 0.197826 301.664012
14.280350 319.575956 0.225000 0.198504 301.080248
15.070062 319.280809 0.225000 0.199219 300.463391
15.862716 318.969774 0.225000 0.199972 299.813328
16.658499 318.642794 0.225000 0.200763 299.129939
17.457603 318.299807 0.225000 0.201591 298.413097
18.260228 317.940749 0.225000 0.202457 297.662665
19.066580 317.565550 0.225000 0.203361 296.878499
19.876874 317.174138 0.225000 0.204302 296.060448
20.691333 316.766434 0.225000 0.205281 295.208347
21.510188 316.342356 0.225000 0.206297 294.322024
22.333683 315.901818 0.225000 0.207351 293.401300
23.162069 315.444726 0.225000 0.208443 292.445977
23.995611 314.970985 0.225000 0.209573 291.455859
24.834587 314.480490 0.225000 0.210740 290.430724
25.679289 313.973132 0.225000 0.211944 289.370346
26.530021 313.448797 0.225000 0.213187 288.274486
27.387108 312.907363 0.225000 0.214467 287.142889
28.250889 312.348701 0.225000 0.215784 285.975285
29.121726 311.772676 0.225000 0.217140 284.771393
30.000000 311.179143 0.225000 0.218533 283.530909
30.886118 310.567950 0.225000 0.219963 282.253516
31.780510 309.938937 0.225000 0.221432 280.938878
32.683639 309.291934 0.225000 0.222937 279.586642
33.595995 308.626759 0.225000 0.224481 278.196426
34.518108 307.943221 0.225000 0.226062 276.767832
35.450543 307.241118 0.225000 0.227681 275.300437
36.393910 306.520235 0.225000 0.229337 273.793791
37.348870 305.780342 0.225000 0.231032 272.247415
38.316134 305.021196 0.225000 0.232763 270.660800
39.296480 304.242539 0.225000 0.234533 269.033407
40.290752 303.444094 0.225000 0.236340 267.364656
41.299873 302.625566 0.225000 0.238184 265.653933
42.324857 301.786641 0.225000 0.240067 263.900580
43.366822 300.926982 0.225000 0.241987 262.103892
44.427004 300.046226 0.225000 0.243944 260.263112
45.506776 299.143985 0.225000 0.245940 258.377429
46.607672 298.219840 0.225000 0.247972 256.445966
47.731416 297.273338 0.225000 0.250043 254.467776
48.879952 296.303990 0.225000 0.252151 252.441839
50.055495 295.315620 0.236250 0.263318 250.376146
51.260575 294.302127 0.241250 0.269476 248.257945
52.498117 293.266822 0.243750 0.273625 246.094158
53.771523 292.206499 0.247500 0.278890 243.878083
55.084794 291.122614 0.250000 0.283097 241.612763
56.442690 290.016009 0.252500 0.287329 239.299959
57.850948 288.886348 0.255000 0.291588 236.938967
59.316583 287.733504 0.257500 0.295872 234.529523
60.848336 286.557427 0.258750 0.299233 232.071522
62.457325 285.358323 0.261250 0.303566 229.565395
64.158067 284.135170 0.262500 0.306807 227.009005
65.970136 282.886183 0.265000 0.311186 224.398622
67.921031 281.621265 0.266250 0.314646 221.754944
70.051556 280.337306 0.268750 0.319067 219.071470
72.427054 279.037667 0.271250 0.323508 216.355224
75.164888 277.718151 0.271250 0.325975 213.597436
78.521659 276.391594 0.273750 0.330488 210.824931
83.380372 275.053617 0.276250 0.335083 208.028560
