# Use this header for notes and global details
# Name of benchmark/experiment:
# Case number:
# Instellation (S_earth):
# XCO2 (ppm):
# Obliquity (degrees):

# Columns of data (annually averaged for last orbit)
# Lat = latitude (degrees)
# Tsurf = annually averaged surface temperature (K)
# Asurf = annually averaged surface albedo
# ATOA = annually averaged top-of-atmosphere/total/planetary albedo
# OLR = annually averaged outgoing longwave radiation (W m^-2)

# Lat Tsurf Asurf ATOA OLR
-83.380372 366.206022 0.225000 0.251806 398.537086
-78.521659 365.743223 0.225000 0.251437 397.569836
-75.164888 365.262352 0.225000 0.251073 396.564816
-72.427054 364.769680 0.225000 0.250715 395.535131
-70.051556 364.269484 0.225000 0.250361 394.489722
-67.921031 363.764081 0.225000 0.250013 393.433429
-65.970136 363.255461 0.225000 0.249669 392.370413
-64.158067 362.745120 0.225000 0.249331 391.303801
-62.457325 362.234153 0.225000 0.248997 390.235880
-60.848336 361.723585 0.225000 0.248669 389.168793
-59.316583 361.214270 0.225000 0.248346 388.104324
-57.850948 360.706857 0.225000 0.248027 387.043831
-56.442690 360.201957 0.225000 0.247714 385.988590
-55.084794 359.700169 0.225000 0.247405 384.939853
-53.771523 359.201972 0.225000 0.247102 383.898621
-52.498117 358.707774 0.225000 0.246803 382.865748
-51.260575 358.217972 0.225000 0.246510 381.842061
-50.055495 357.732968 0.225000 0.246221 380.828403
-48.879952 357.253103 0.225000 0.245938 379.825485
-47.731416 356.778664 0.225000 0.245659 378.833908
-46.607672 356.309930 0.225000 0.245386 377.854254
-45.506776 355.847185 0.225000 0.245117 376.887117
-44.427004 355.390706 0.225000 0.244854 375.933076
-43.366822 354.940720 0.225000 0.244595 374.992605
-42.324857 354.497435 0.225000 0.244342 374.066139
-41.299873 354.061058 0.225000 0.244093 373.154111
-40.290752 353.631806 0.225000 0.243849 372.256975
-39.296480 353.209894 0.225000 0.243611 371.375178
-38.316134 352.795503 0.225000 0.243377 370.509101
-37.348870 352.388795 0.225000 0.243148 369.659082
-36.393910 351.989931 0.225000 0.242925 368.825456
-35.450543 351.599081 0.225000 0.242706 368.008579
-34.518108 351.216420 0.225000 0.242492 367.208818
-33.595995 350.842099 0.225000 0.242283 366.426487
-32.683639 350.476251 0.225000 0.242080 365.661865
-31.780510 350.119007 0.225000 0.241881 364.915225
-30.886118 349.770502 0.225000 0.241687 364.186849
-30.000000 349.430873 0.225000 0.241498 363.477025
-29.121726 349.100242 0.225000 0.241314 362.786006
-28.250889 348.778711 0.225000 0.241135 362.114006
-27.387108 348.466380 0.225000 0.240961 361.461234
-26.530021 348.163349 0.225000 0.240792 360.827899
-25.679289 347.869720 0.225000 0.240628 360.214215
-24.834587 347.585573 0.225000 0.240469 359.620348
-23.995611 347.310973 0.225000 0.240315 359.046434
-23.162069 347.045983 0.225000 0.240166 358.492604
-22.333683 346.790665 0.225000 0.240022 357.958990
-21.510188 346.545054 0.225000 0.239883 357.445663
-20.691333 346.309171 0.225000 0.239749 356.952667
-19.876874 346.083025 0.225000 0.239620 356.480022
-19.066580 345.866589 0.225000 0.239495 356.027671
-18.260228 345.659802 0.225000 0.239376 355.595486
-17.457603 345.462581 0.225000 0.239262 355.183294
-16.658499 345.274834 0.225000 0.239153 354.790903
-15.862716 345.096463 0.225000 0.239048 354.418108
-15.070062 344.927366 0.225000 0.238949 354.064695
-14.280350 344.767442 0.225000 0.238855 353.730454
-13.493399 344.616588 0.225000 0.238765 353.415169
-12.709033 344.474706 0.225000 0.238681 353.118636
-11.927082 344.341700 0.225000 0.238602 352.840653
-11.147378 344.217477 0.225000 0.238527 352.581027
-10.369760 344.101950 0.225000 0.238458 352.339576
-9.594068 343.995034 0.225000 0.238393 352.116121
-8.820148 343.896653 0.225000 0.238334 351.910505
-8.047846 343.806733 0.225000 0.238279 351.722572
-7.277014 343.725208 0.225000 0.238230 351.552185
-6.507504 343.652016 0.225000 0.238185 351.399213
-5.739170 343.587102 0.225000 0.238145 351.263543
-4.971872 343.530416 0.225000 0.238111 351.145069
-4.205466 343.481915 0.225000 0.238081 351.043702
-3.439813 343.441562 0.225000 0.238056 350.959365
-2.674774 343.409325 0.225000 0.238037 350.891989
-1.910213 343.385181 0.225000 0.238022 350.841528
-1.145992 343.369109 0.225000 0.238012 350.807938
-0.381975 343.361098 0.225000 0.238007 350.791195
0.381975 343.361141 0.225000 0.238008 350.791285
1.145992 343.369238 0.225000 0.238013 350.808207
1.910213 343.385395 0.225000 0.238023 350.841976
2.674774 343.409624 0.225000 0.238038 350.892614
3.439813 343.441945 0.225000 0.238058 350.960165
4.205466 343.482381 0.225000 0.238083 351.044676
4.971872 343.530964 0.225000 0.238113 351.146215
5.739170 343.587731 0.225000 0.238148 351.264858
6.507504 343.652724 0.225000 0.238188 351.400693
7.277014 343.725993 0.225000 0.238233 351.553825
8.047846 343.807593 0.225000 0.238283 351.724369
8.820148 343.897585 0.225000 0.238338 351.912453
9.594068 343.996036 0.225000 0.238397 352.118215
10.369760 344.103018 0.225000 0.238462 352.341808
11.147378 344.218609 0.225000 0.238532 352.583393
11.927082 344.342892 0.225000 0.238607 352.843144
12.709033 344.475955 0.225000 0.238687 353.121246
13.493399 344.617889 0.225000 0.238771 353.417888
14.280350 344.768790 0.225000 0.238861 353.733271
15.070062 344.928757 0.225000 0.238955 354.067602
15.862716 345.097892 0.225000 0.239055 354.421094
16.658499 345.276295 0.225000 0.239160 354.793957
17.457603 345.464068 0.225000 0.239269 355.186402
18.260228 345.661309 0.225000 0.239384 355.598636
19.066580 345.868110 0.225000 0.239503 356.030850
19.876874 346.084551 0.225000 0.239628 356.483212
20.691333 346.310694 0.225000 0.239757 356.955850
21.510188 346.546566 0.225000 0.239892 357.448823
22.333683 346.792154 0.225000 0.240031 357.962102
23.162069 347.047440 0.225000 0.240175 358.495650
23.995611 347.312385 0.225000 0.240325 359.049385
24.834587 347.586928 0.225000 0.240479 359.623180
25.679289 347.871004 0.225000 0.240638 360.216898
26.530021 348.164547 0.225000 0.240802 360.830403
27.387108 348.467475 0.225000 0.240972 361.463523
28.250889 348.779688 0.225000 0.241146 362.116048
29.121726 349.101081 0.225000 0.241325 362.787759
30.000000 349.431555 0.225000 0.241509 363.478450
30.886118 349.771007 0.225000 0.241698 364.187905
31.780510 350.119313 0.225000 0.241892 364.915864
32.683639 350.476334 0.225000 0.242091 365.662038
33.595995 350.841935 0.225000 0.242295 366.426144
34.518108 351.215984 0.225000 0.242504 367.207907
35.450543 351.598348 0.225000 0.242718 368.007047
36.393910 351.988871 0.225000 0.242937 368.823240
37.348870 352.387379 0.225000 0.243161 369.656122
38.316134 352.793703 0.225000 0.243389 370.505339
39.296480 353.207680 0.225000 0.243623 371.370551
40.290752 353.629146 0.225000 0.243862 372.251415
41.299873 354.057924 0.225000 0.244106 373.147561
42.324857 354.493796 0.225000 0.244354 374.058534
43.366822 354.936545 0.225000 0.244608 374.983879
44.427004 355.385965 0.225000 0.244866 375.923167
45.506776 355.841849 0.225000 0.245130 376.875964
46.607672 356.303972 0.225000 0.245399 377.841801
47.731416 356.772059 0.225000 0.245672 378.820103
48.879952 357.245826 0.225000 0.245950 379.810276
50.055495 357.724995 0.225000 0.246234 380.811740
51.260575 358.209282 0.225000 0.246522 381.823899
52.498117 358.698348 0.225000 0.246816 382.846047
53.771523 359.191795 0.225000 0.247114 383.877352
55.084794 359.689225 0.225000 0.247417 384.916980
56.442690 360.190235 0.225000 0.247725 385.964091
57.850948 360.694350 0.225000 0.248039 387.017692
59.316583 361.200975 0.225000 0.248357 388.076538
60.848336 361.709501 0.225000 0.248680 389.139357
62.457325 362.219285 0.225000 0.249008 390.204806
64.158067 362.729482 0.225000 0.249341 391.271117
65.970136 363.239071 0.225000 0.249679 392.336158
67.921031 363.746966 0.225000 0.250021 393.397659
70.051556 364.251685 0.225000 0.250369 394.452522
72.427054 364.751248 0.225000 0.250722 395.496608
75.164888 365.243349 0.225000 0.251079 396.525099
78.521659 365.723731 0.225000 0.251442 397.529098
83.380372 366.186149 0.225000 0.251809 398.495551
