# Use this header for notes and global details
# Name of benchmark/experiment:
# Case number:
# Instellation (S_earth):
# XCO2 (ppm):
# Obliquity (degrees):

# Columns of data (annually averaged for last orbit)
# Lat = latitude (degrees)
# Tsurf = annually averaged surface temperature (K)
# Asurf = annually averaged surface albedo
# ATOA = annually averaged top-of-atmosphere/total/planetary albedo
# OLR = annually averaged outgoing longwave radiation (W m^-2)

# Lat Tsurf Asurf ATOA OLR
-83.380372 255.810232 0.600000 0.600000 167.809885
-78.521659 257.772348 0.600000 0.600000 171.910707
-75.164888 259.679350 0.600000 0.600000 175.896342
-72.427054 261.550515 0.600000 0.600000 179.807076
-70.051556 263.396629 0.600000 0.600000 183.665455
-67.921031 265.224849 0.600000 0.600000 187.486434
-65.970136 267.040404 0.600000 0.600000 191.280944
-64.158067 268.847362 0.600000 0.600000 195.057487
-62.457325 270.649038 0.300000 0.340756 198.822989
-60.848336 272.369673 0.300000 0.338644 202.419117
-59.316583 274.018548 0.300000 0.336564 205.865265
-57.850948 275.606819 0.300000 0.334516 209.184752
-56.442690 277.141797 0.300000 0.332500 212.392856
-55.084794 278.459030 0.300000 0.330516 215.145873
-53.771523 279.702925 0.300000 0.328564 217.745613
-52.498117 280.908238 0.300000 0.326644 220.264717
-51.260575 282.781850 0.225000 0.258008 224.180566
-50.055495 284.123429 0.225000 0.255533 226.984467
-48.879952 285.420296 0.225000 0.253101 229.694919
-47.731416 286.675260 0.225000 0.250712 232.317793
-46.607672 287.890737 0.225000 0.248365 234.858140
-45.506776 289.068823 0.225000 0.246061 237.320340
-44.427004 290.211348 0.225000 0.243800 239.708217
-43.366822 291.319922 0.225000 0.241581 242.025137
-42.324857 292.395968 0.225000 0.239405 244.274073
-41.299873 293.440751 0.225000 0.237272 246.457670
-40.290752 294.455402 0.225000 0.235181 248.578290
-39.296480 295.440935 0.225000 0.233133 250.638054
-38.316134 296.398263 0.225000 0.231128 252.638870
-37.348870 297.328214 0.225000 0.229165 254.582467
-36.393910 298.231536 0.225000 0.227245 256.470410
-35.450543 299.108912 0.225000 0.225368 258.304126
-34.518108 299.960964 0.225000 0.223533 260.084915
-33.595995 300.788262 0.225000 0.221741 261.813968
-32.683639 301.591329 0.225000 0.219992 263.492378
-31.780510 302.370644 0.225000 0.218285 265.121146
-30.886118 303.126650 0.225000 0.216621 266.701199
-30.000000 303.859755 0.225000 0.215000 268.233388
-29.121726 304.570337 0.225000 0.213421 269.718504
-28.250889 305.258744 0.225000 0.211885 271.157275
-27.387108 305.925302 0.225000 0.210392 272.550381
-26.530021 306.570309 0.225000 0.208941 273.898446
-25.679289 307.194046 0.225000 0.207533 275.202056
-24.834587 307.796773 0.225000 0.206168 276.461756
-23.995611 308.378731 0.225000 0.204845 277.678048
-23.162069 308.940147 0.225000 0.203565 278.851407
-22.333683 309.481229 0.225000 0.202328 279.982269
-21.510188 310.002175 0.225000 0.201133 281.071046
-20.691333 310.503167 0.225000 0.199981 282.118119
-19.876874 310.984376 0.225000 0.198872 283.123846
-19.066580 311.445962 0.225000 0.197805 284.088561
-18.260228 311.888073 0.225000 0.196781 285.012573
-17.457603 312.310849 0.225000 0.195800 285.896174
-16.658499 312.714419 0.225000 0.194861 286.739636
-15.862716 313.098903 0.225000 0.193965 287.543207
-15.070062 313.464415 0.225000 0.193112 288.307127
-14.280350 313.811059 0.225000 0.192301 289.031613
-13.493399 314.138933 0.225000 0.191533 289.716870
-12.709033 314.448126 0.225000 0.190808 290.363083
-11.927082 314.738724 0.225000 0.190125 290.970433
-11.147378 315.010803 0.225000 0.189485 291.539078
-10.369760 315.264435 0.225000 0.188888 292.069169
-9.594068 315.499685 0.225000 0.188333 292.560842
-8.820148 315.716613 0.225000 0.187821 293.014221
-8.047846 315.915274 0.225000 0.187352 293.429423
-7.277014 316.095718 0.225000 0.186925 293.806551
-6.507504 316.257989 0.225000 0.186541 294.145697
-5.739170 316.402126 0.225000 0.186200 294.446943
-4.971872 316.528164 0.225000 0.185901 294.710363
-4.205466 316.636135 0.225000 0.185645 294.936022
-3.439813 316.726063 0.225000 0.185432 295.123972
-2.674774 316.797970 0.225000 0.185261 295.274257
-1.910213 316.851874 0.225000 0.185133 295.386917
-1.145992 316.887785 0.225000 0.185048 295.461971
-0.381975 316.905715 0.225000 0.185005 295.499444
0.381975 316.905665 0.225000 0.185005 295.499340
1.145992 316.887637 0.225000 0.185048 295.461661
1.910213 316.851626 0.225000 0.185133 295.386398
2.674774 316.797625 0.225000 0.185261 295.273536
3.439813 316.725619 0.225000 0.185432 295.123044
4.205466 316.635592 0.225000 0.185645 294.934887
4.971872 316.527523 0.225000 0.185901 294.709023
5.739170 316.401385 0.225000 0.186200 294.445395
6.507504 316.257150 0.225000 0.186541 294.143943
7.277014 316.094781 0.225000 0.186925 293.804592
8.047846 315.914239 0.225000 0.187352 293.427260
8.820148 315.715480 0.225000 0.187821 293.011853
9.594068 315.498454 0.225000 0.188333 292.558269
10.369760 315.263106 0.225000 0.188888 292.066392
11.147378 315.009377 0.225000 0.189485 291.536098
11.927082 314.737201 0.225000 0.190125 290.967250
12.709033 314.446506 0.225000 0.190808 290.359698
13.493399 314.137215 0.225000 0.191533 289.713279
14.280350 313.809245 0.225000 0.192301 289.027822
15.070062 313.462505 0.225000 0.193112 288.303135
15.862716 313.096898 0.225000 0.193965 287.539017
16.658499 312.712318 0.225000 0.194861 286.735245
17.457603 312.308653 0.225000 0.195800 285.891585
18.260228 311.885783 0.225000 0.196781 285.007786
19.066580 311.443578 0.225000 0.197805 284.083578
19.876874 310.981899 0.225000 0.198872 283.118669
20.691333 310.500596 0.225000 0.199981 282.112746
21.510188 309.999512 0.225000 0.201133 281.065480
22.333683 309.478475 0.225000 0.202328 279.976513
23.162069 308.937301 0.225000 0.203565 278.845459
23.995611 308.375796 0.225000 0.204845 277.671914
24.834587 307.793748 0.225000 0.206168 276.455433
25.679289 307.190933 0.225000 0.207533 275.195550
26.530021 306.567108 0.225000 0.208941 273.891756
27.387108 305.922014 0.225000 0.210392 272.543509
28.250889 305.255371 0.225000 0.211885 271.150225
29.121726 304.566880 0.225000 0.213421 269.711279
30.000000 303.856215 0.225000 0.215000 268.225989
30.886118 303.123029 0.225000 0.216621 266.693631
31.780510 302.366943 0.225000 0.218285 265.113411
32.683639 301.587550 0.225000 0.219992 263.484479
33.595995 300.784407 0.225000 0.221741 261.805911
34.518108 299.957035 0.225000 0.223533 260.076703
35.450543 299.104910 0.225000 0.225368 258.295762
36.393910 298.227465 0.225000 0.227245 256.461902
37.348870 297.324075 0.225000 0.229165 254.573817
38.316134 296.394060 0.225000 0.231128 252.630085
39.296480 295.436670 0.225000 0.233133 250.629140
40.290752 294.451079 0.225000 0.235181 248.569255
41.299873 293.436373 0.225000 0.237272 246.448520
42.324857 292.391540 0.225000 0.239405 244.264819
43.366822 291.315447 0.225000 0.241581 242.015784
44.427004 290.206832 0.225000 0.243800 239.698779
45.506776 289.064271 0.225000 0.246061 237.310826
46.607672 287.886155 0.225000 0.248365 234.848564
47.731416 286.670655 0.225000 0.250712 232.308169
48.879952 285.415676 0.225000 0.253101 229.685263
50.055495 284.118802 0.225000 0.255533 226.974796
51.260575 282.777225 0.225000 0.258008 224.170900
52.498117 280.903514 0.300000 0.326644 220.254844
53.771523 279.698185 0.300000 0.328564 217.735707
55.084794 278.454284 0.300000 0.330516 215.135954
56.442690 277.137331 0.300000 0.332500 212.383522
57.850948 275.602443 0.300000 0.334516 209.175606
59.316583 274.014287 0.300000 0.336564 205.856360
60.848336 272.365560 0.300000 0.338644 202.410520
62.457325 270.646788 0.300000 0.340756 198.818287
64.158067 268.845293 0.600000 0.600000 195.053162
65.970136 267.038510 0.600000 0.600000 191.276986
67.921031 265.223125 0.600000 0.600000 187.482831
70.051556 263.395070 0.600000 0.600000 183.662196
72.427054 261.549115 0.600000 0.600000 179.804150
75.164888 259.678105 0.600000 0.600000 175.893739
78.521659 257.771255 0.600000 0.600000 171.908423
83.380372 255.809285 0.600000 0.600000 167.807906
