# Use this header for notes and global details
# Name of benchmark/experiment:
# Case number:
# Instellation (S_earth):
# XCO2 (ppm):
# Obliquity (degrees):

# Columns of data (annually averaged for last orbit)
# Lat = latitude (degrees)
# Tsurf = annually averaged surface temperature (K)
# Asurf = annually averaged surface albedo
# ATOA = annually averaged top-of-atmosphere/total/planetary albedo
# OLR = annually averaged outgoing longwave radiation (W m^-2)

# Lat Tsurf Asurf ATOA OLR
-83.380372 270.497767 0.567500 0.568886 198.506833
-78.521659 270.181125 0.567500 0.568161 197.845051
-75.164888 269.862476 0.567500 0.567684 197.179075
-72.427054 269.542915 0.567500 0.567315 196.511192
-70.051556 269.223439 0.567500 0.567012 195.843488
-67.921031 268.904445 0.567500 0.566755 195.176790
-65.970136 268.586379 0.567500 0.566535 194.512032
-64.158067 268.269580 0.567500 0.566343 193.849922
-62.457325 267.954267 0.568750 0.567510 193.190918
-60.848336 267.642760 0.568750 0.567372 192.539868
-59.316583 267.334872 0.568750 0.567251 191.896382
-57.850948 267.030458 0.567500 0.566192 191.260157
-56.442690 266.729395 0.567500 0.566092 190.630936
-55.084794 266.431683 0.567500 0.566005 190.008717
-53.771523 266.137316 0.567500 0.565928 189.393490
-52.498117 265.846294 0.567500 0.565860 188.785254
-51.260575 265.558643 0.567500 0.565802 188.184064
-50.055495 265.274416 0.567500 0.565753 187.590029
-48.879952 264.993657 0.567500 0.565711 187.003243
-47.731416 264.716401 0.567500 0.565676 186.423778
-46.607672 264.442693 0.567500 0.565649 185.851728
-45.506776 264.172590 0.567500 0.565628 185.287213
-44.427004 263.906158 0.567500 0.565613 184.730370
-43.366822 263.643446 0.567500 0.565605 184.181302
-42.324857 263.384503 0.567500 0.565601 183.640111
-41.299873 263.129381 0.566250 0.564585 183.106906
-40.290752 262.878061 0.566250 0.564585 182.581647
-39.296480 262.630611 0.566250 0.564590 182.064477
-38.316134 262.387084 0.567500 0.566011 181.555506
-37.348870 262.148135 0.567500 0.566023 181.056102
-36.393910 261.913777 0.567500 0.566039 180.566294
-35.450543 261.684031 0.567500 0.566058 180.086125
-34.518108 261.458927 0.567500 0.566081 179.615657
-33.595995 261.238492 0.567500 0.566108 179.154948
-32.683639 261.022749 0.567500 0.566138 178.704045
-31.780510 260.811721 0.567500 0.566171 178.262997
-30.886118 260.605441 0.567500 0.566207 177.831872
-30.000000 260.403946 0.567500 0.566246 177.410747
-29.121726 260.207268 0.567500 0.566288 176.999690
-28.250889 260.015433 0.566250 0.565258 176.598755
-27.387108 259.828373 0.566250 0.565298 176.207800
-26.530021 259.646118 0.567500 0.566684 175.826887
-25.679289 259.469069 0.567500 0.566725 175.456854
-24.834587 259.297231 0.567500 0.566767 175.097713
-23.995611 259.130605 0.567500 0.566812 174.749464
-23.162069 258.969194 0.567500 0.566859 174.412115
-22.333683 258.813004 0.567500 0.566908 174.085678
-21.510188 258.662030 0.567500 0.566959 173.770143
-20.691333 258.516263 0.568750 0.568277 173.465490
-19.876874 258.375963 0.568750 0.568325 173.172263
-19.066580 258.241090 0.568750 0.568375 172.890378
-18.260228 258.111586 0.568750 0.568427 172.619715
-17.457603 257.987386 0.570000 0.569680 172.360137
-16.658499 257.868647 0.570000 0.569728 172.111972
-15.862716 257.755289 0.570000 0.569793 171.875054
-15.070062 257.647318 0.570000 0.569830 171.649395
-14.280350 257.544648 0.571250 0.570974 171.434814
-13.493399 257.447365 0.572500 0.572076 171.231493
-12.709033 257.355536 0.575000 0.574237 171.039570
-11.927082 257.269374 0.576250 0.575337 170.859492
-11.147378 257.188939 0.577500 0.576453 170.691383
-10.369760 257.114295 0.578750 0.577594 170.535377
-9.594068 257.045521 0.580000 0.578762 170.391639
-8.820148 256.982705 0.581250 0.579962 170.260353
-8.047846 256.925953 0.580000 0.578509 170.141742
-7.277014 256.874923 0.580000 0.578400 170.035089
-6.507504 256.829512 0.577500 0.575723 169.940180
-5.739170 256.789206 0.578750 0.577035 169.855941
-4.971872 256.754183 0.578750 0.576964 169.782742
-4.205466 256.724378 0.577500 0.575779 169.720450
-3.439813 256.699614 0.577500 0.575722 169.668693
-2.674774 256.679842 0.577500 0.575720 169.627370
-1.910213 256.665036 0.577500 0.575688 169.596425
-1.145992 256.655168 0.577500 0.575688 169.575801
-0.381975 256.650224 0.577500 0.575678 169.565468
0.381975 256.650194 0.577500 0.575678 169.565405
1.145992 256.655079 0.577500 0.575690 169.575615
1.910213 256.664887 0.577500 0.575690 169.596114
2.674774 256.679632 0.577500 0.575724 169.626931
3.439813 256.699342 0.577500 0.575725 169.668125
4.205466 256.724043 0.578750 0.576965 169.719750
4.971872 256.753922 0.578750 0.576961 169.782197
5.739170 256.789015 0.578750 0.577028 169.855541
6.507504 256.829385 0.577500 0.575713 169.939915
7.277014 256.874853 0.578750 0.577110 170.034943
8.047846 256.925732 0.580000 0.578503 170.141280
8.820148 256.982325 0.580000 0.578624 170.259559
9.594068 257.044744 0.581250 0.579965 170.390015
10.369760 257.113315 0.580000 0.578757 170.533328
11.147378 257.187935 0.578750 0.577587 170.689284
11.927082 257.268517 0.576250 0.575338 170.857701
12.709033 257.354816 0.575000 0.574240 171.038065
13.493399 257.446777 0.572500 0.572080 171.230264
14.280350 257.544185 0.571250 0.570970 171.433847
15.070062 257.646971 0.570000 0.569828 171.648669
15.862716 257.755050 0.570000 0.569790 171.874555
16.658499 257.868506 0.570000 0.569725 172.111678
17.457603 257.987333 0.570000 0.569677 172.360026
18.260228 258.111608 0.568750 0.568427 172.619761
19.066580 258.241175 0.568750 0.568375 172.890556
19.876874 258.376098 0.568750 0.568325 173.172545
20.691333 258.516432 0.568750 0.568277 173.465843
21.510188 258.662220 0.567500 0.566961 173.770540
22.333683 258.813197 0.567500 0.566910 174.086082
23.162069 258.969373 0.567500 0.566861 174.412490
23.995611 259.130752 0.567500 0.566814 174.749772
24.834587 259.297325 0.567500 0.566769 175.097909
25.679289 259.469088 0.567500 0.566726 175.456894
26.530021 259.646038 0.567500 0.566686 175.826719
27.387108 259.828168 0.567500 0.566648 176.207371
28.250889 260.015464 0.567500 0.566333 176.598820
29.121726 260.207607 0.567500 0.566288 177.000399
30.000000 260.404569 0.567500 0.566246 177.412049
30.886118 260.606322 0.567500 0.566207 177.833713
31.780510 260.812833 0.567500 0.566170 178.265321
32.683639 261.024062 0.567500 0.566137 178.706790
33.595995 261.239977 0.567500 0.566107 179.158052
34.518108 261.460549 0.567500 0.566080 179.619047
35.450543 261.685756 0.567500 0.566057 180.089730
36.393910 261.915569 0.567500 0.566037 180.570039
37.348870 262.149953 0.567500 0.566021 181.059902
38.316134 262.388885 0.567500 0.566009 181.559270
39.296480 262.632352 0.567500 0.566001 182.068116
40.290752 262.880348 0.566250 0.564582 182.586427
41.299873 263.132181 0.566250 0.564582 183.112758
42.324857 263.387781 0.567500 0.565595 183.646962
43.366822 263.647162 0.567500 0.565599 184.189069
44.427004 263.910271 0.567500 0.565607 184.738966
45.506776 264.177056 0.567500 0.565622 185.296547
46.607672 264.447466 0.567500 0.565643 185.861704
47.731416 264.721434 0.567500 0.565671 186.434297
48.879952 264.998896 0.567500 0.565705 187.014193
50.055495 265.279805 0.567500 0.565747 187.601292
51.260575 265.564120 0.567500 0.565797 188.195511
52.498117 265.851790 0.567500 0.565855 188.796741
53.771523 266.142756 0.567500 0.565922 189.404860
55.084794 266.436979 0.567500 0.566000 190.019786
56.442690 266.734448 0.567500 0.566087 190.641496
57.850948 267.035152 0.567500 0.566187 191.269968
59.316583 267.339072 0.568750 0.567245 191.905160
60.848336 267.646295 0.568750 0.567366 192.547257
62.457325 267.956927 0.568750 0.567504 193.196477
64.158067 268.271101 0.568750 0.567662 193.853101
65.970136 268.589061 0.567500 0.566533 194.517637
67.921031 268.908283 0.567500 0.566755 195.184811
70.051556 269.228437 0.567500 0.567012 195.853933
72.427054 269.549077 0.567500 0.567316 196.524071
75.164888 269.869807 0.567500 0.567686 197.194397
78.521659 270.189625 0.567500 0.568164 197.862816
83.380372 270.507430 0.567500 0.568891 198.527029
