# Use this header for notes and global details
# Name of benchmark/experiment:
# Case number:
# Instellation (S_earth):
# XCO2 (ppm):
# Obliquity (degrees):

# Columns of data (annually averaged for last orbit)
# Lat = latitude (degrees)
# Tsurf = annually averaged surface temperature (K)
# Asurf = annually averaged surface albedo
# ATOA = annually averaged top-of-atmosphere/total/planetary albedo
# OLR = annually averaged outgoing longwave radiation (W m^-2)

# Lat Tsurf Asurf ATOA OLR
-83.380372 289.863549 0.268750 0.305245 238.981317
-78.521659 289.990333 0.268750 0.303464 239.246296
-75.164888 290.106389 0.268750 0.301934 239.488853
-72.427054 290.215573 0.268750 0.300522 239.717048
-70.051556 290.319896 0.268750 0.299187 239.935083
-67.921031 290.421523 0.267500 0.296993 240.147483
-65.970136 290.522160 0.267500 0.295763 240.357814
-64.158067 290.621393 0.267500 0.294575 240.565211
-62.457325 290.719821 0.267500 0.293423 240.770926
-60.848336 290.818002 0.267500 0.292305 240.976124
-59.316583 290.916344 0.267500 0.291219 241.181659
-57.850948 291.014002 0.265000 0.287891 241.385764
-56.442690 291.108309 0.265000 0.286849 241.582866
-55.084794 291.202540 0.265000 0.285833 241.779809
-53.771523 291.300445 0.265000 0.284843 241.984430
-52.498117 291.400432 0.265000 0.283878 242.193403
-51.260575 291.501704 0.263750 0.281998 242.405061
-50.055495 291.604478 0.263750 0.281076 242.619859
-48.879952 291.704136 0.262500 0.278811 242.828144
-47.731416 291.804418 0.262500 0.277928 243.037734
-46.607672 291.910917 0.262500 0.277068 243.260317
-45.506776 292.019001 0.262500 0.276230 243.486212
-44.427004 292.128792 0.261250 0.274463 243.715675
-43.366822 292.235021 0.260000 0.272288 243.937694
-42.324857 292.343559 0.260000 0.271503 244.164538
-41.299873 292.457385 0.260000 0.270739 244.402435
-40.290752 292.572668 0.260000 0.269996 244.643376
-39.296480 292.687494 0.258750 0.267900 244.883362
-38.316134 292.798609 0.257500 0.266231 245.115593
-37.348870 292.916672 0.257500 0.265539 245.362344
-36.393910 293.035423 0.257500 0.264866 245.610534
-35.450543 293.151237 0.256250 0.262841 245.852585
-34.518108 293.265648 0.256250 0.262203 246.091704
-33.595995 293.384568 0.255000 0.260619 246.340247
-32.683639 293.502777 0.253750 0.258650 246.587304
-31.780510 293.614283 0.253750 0.258060 246.820351
-30.886118 293.731455 0.253750 0.257489 247.065241
-30.000000 293.847862 0.253750 0.256937 247.308532
-29.121726 293.956947 0.251250 0.254076 247.536519
-28.250889 294.071058 0.251250 0.253552 247.775011
-27.387108 294.183903 0.251250 0.253047 248.010857
-26.530021 294.288797 0.250000 0.251215 248.230086
-25.679289 294.398447 0.250000 0.250742 248.459254
-24.834587 294.505314 0.247500 0.247981 248.682606
-23.995611 294.606628 0.247500 0.247535 248.894353
-23.162069 294.710550 0.247500 0.247108 249.111549
-22.333683 294.806847 0.246250 0.245386 249.312810
-21.510188 294.906430 0.245000 0.244004 249.520939
-20.691333 295.000681 0.243750 0.242333 249.717923
-19.876874 295.093368 0.243750 0.241963 249.911639
-19.066580 295.182084 0.241250 0.239352 250.097056
-18.260228 295.270574 0.241250 0.239007 250.282000
-17.457603 295.353952 0.240000 0.237433 250.456260
-16.658499 295.436175 0.237500 0.234906 250.628106
-15.862716 295.513674 0.237500 0.234597 250.790079
-15.070062 295.587983 0.235000 0.232107 250.945384
-14.280350 295.659863 0.232500 0.229648 251.095614
-13.493399 295.726625 0.228750 0.226097 251.235146
-12.709033 295.791216 0.225000 0.222624 251.370141
-11.927082 295.853202 0.225000 0.222342 251.499692
-11.147378 295.911335 0.225000 0.222078 251.621190
-10.369760 295.965615 0.225000 0.221831 251.734635
-9.594068 296.016038 0.225000 0.221602 251.840019
-8.820148 296.062603 0.225000 0.221390 251.937340
-8.047846 296.105308 0.225000 0.221196 252.026594
-7.277014 296.144153 0.225000 0.221020 252.107780
-6.507504 296.179135 0.225000 0.220862 252.180892
-5.739170 296.210254 0.225000 0.220721 252.245931
-4.971872 296.237510 0.225000 0.220597 252.302896
-4.205466 296.260900 0.225000 0.220491 252.351781
-3.439813 296.280425 0.225000 0.220403 252.392588
-2.674774 296.296084 0.225000 0.220333 252.425316
-1.910213 296.307877 0.225000 0.220280 252.449963
-1.145992 296.315804 0.225000 0.220245 252.466530
-0.381975 296.319863 0.225000 0.220227 252.475014
0.381975 296.320056 0.225000 0.220227 252.475417
1.145992 296.316382 0.225000 0.220244 252.467738
1.910213 296.308842 0.225000 0.220280 252.451980
2.674774 296.297434 0.225000 0.220332 252.428137
3.439813 296.282161 0.225000 0.220403 252.396216
4.205466 296.263022 0.225000 0.220491 252.356216
4.971872 296.240017 0.225000 0.220596 252.308136
5.739170 296.213147 0.225000 0.220720 252.251977
6.507504 296.182413 0.225000 0.220861 252.187743
7.277014 296.147816 0.225000 0.221019 252.115435
8.047846 296.109356 0.225000 0.221195 252.035054
8.820148 296.067036 0.225000 0.221389 251.946605
9.594068 296.020855 0.225000 0.221600 251.850087
10.369760 295.970817 0.225000 0.221829 251.745508
11.147378 295.916922 0.225000 0.222076 251.632867
11.927082 295.859172 0.225000 0.222340 251.512169
12.709033 295.797570 0.225000 0.222622 251.383421
13.493399 295.733418 0.228750 0.226097 251.249344
14.280350 295.666868 0.232500 0.229642 251.110254
15.070062 295.595489 0.235000 0.232104 250.961072
15.862716 295.521479 0.237500 0.234591 250.806391
16.658499 295.444510 0.237500 0.234900 250.645526
17.457603 295.362639 0.240000 0.237427 250.474416
18.260228 295.279536 0.241250 0.238998 250.300730
19.066580 295.191503 0.241250 0.239344 250.116741
19.876874 295.103187 0.243750 0.241956 249.932161
20.691333 295.010833 0.243750 0.242327 249.739141
21.510188 294.917085 0.245000 0.244000 249.543208
22.333683 294.817876 0.246250 0.245384 249.335861
23.162069 294.721836 0.247500 0.247103 249.135137
23.995611 294.618285 0.247500 0.247530 248.918716
24.834587 294.517168 0.247500 0.247976 248.707381
25.679289 294.410938 0.250000 0.250738 248.485360
26.530021 294.301659 0.250000 0.251211 248.256967
27.387108 294.197032 0.251250 0.253041 248.038297
28.250889 294.084557 0.251250 0.253547 247.803224
29.121726 293.970815 0.251250 0.254070 247.565503
30.000000 293.862202 0.253750 0.256935 247.338502
30.886118 293.746166 0.253750 0.257487 247.095987
31.780510 293.629366 0.253750 0.258058 246.851875
32.683639 293.517913 0.253750 0.258649 246.618938
33.595995 293.400282 0.255000 0.260615 246.373089
34.518108 293.281728 0.256250 0.262200 246.125312
35.450543 293.167603 0.256250 0.262839 245.886790
36.393910 293.052148 0.257500 0.264862 245.645489
37.348870 292.933762 0.257500 0.265534 245.398063
38.316134 292.816065 0.257500 0.266227 245.152076
39.296480 292.705434 0.258750 0.267895 244.920857
40.290752 292.591013 0.260000 0.269992 244.681717
41.299873 292.476099 0.260000 0.270735 244.441547
42.324857 292.362639 0.260000 0.271499 244.204416
43.366822 292.254491 0.260000 0.272284 243.978386
44.427004 292.148449 0.261250 0.274458 243.756758
45.506776 292.039017 0.262500 0.276226 243.528046
46.607672 291.931293 0.262500 0.277064 243.302902
47.731416 291.825154 0.262500 0.277924 243.081072
48.879952 291.725527 0.262500 0.278807 242.872851
50.055495 291.626135 0.263750 0.281074 242.665122
51.260575 291.523723 0.263750 0.281996 242.451081
52.498117 291.422808 0.265000 0.283875 242.240169
53.771523 291.323173 0.265000 0.284840 242.031932
55.084794 291.225452 0.265000 0.285830 241.827695
56.442690 291.131559 0.265000 0.286846 241.631458
57.850948 291.037591 0.265000 0.287889 241.435065
59.316583 290.941924 0.267500 0.291215 241.235121
60.848336 290.842136 0.267500 0.292302 241.026564
62.457325 290.744252 0.267500 0.293420 240.821987
64.158067 290.646124 0.267500 0.294571 240.616899
65.970136 290.547200 0.267500 0.295760 240.410148
67.921031 290.446882 0.267500 0.296990 240.200483
70.051556 290.345901 0.268750 0.299184 239.989433
72.427054 290.241918 0.268750 0.300519 239.772109
75.164888 290.133081 0.268750 0.301932 239.544639
78.521659 290.017376 0.268750 0.303462 239.302816
83.380372 289.890937 0.268750 0.305244 239.038558
