# Use this header for notes and global details
# Name of benchmark/experiment:
# Case number:
# Instellation (S_earth):
# XCO2 (ppm):
# Obliquity (degrees):

# Columns of data (annually averaged for last orbit)
# Lat = latitude (degrees)
# Tsurf = annually averaged surface temperature (K)
# Asurf = annually averaged surface albedo
# ATOA = annually averaged top-of-atmosphere/total/planetary albedo
# OLR = annually averaged outgoing longwave radiation (W m^-2)

# Lat Tsurf Asurf ATOA OLR
-83.380372 342.542897 0.225000 0.246751 349.081155
-78.521659 341.991603 0.225000 0.246667 347.928950
-75.164888 341.427451 0.225000 0.246581 346.749873
-72.427054 340.855272 0.225000 0.246495 345.554018
-70.051556 340.278400 0.225000 0.246409 344.348356
-67.921031 339.698928 0.225000 0.246324 343.137260
-65.970136 339.118301 0.225000 0.246240 341.923749
-64.158067 338.537754 0.225000 0.246156 340.710406
-62.457325 337.958103 0.225000 0.246074 339.498935
-60.848336 337.380058 0.225000 0.245992 338.290821
-59.316583 336.804321 0.225000 0.245911 337.087531
-57.850948 336.231456 0.225000 0.245832 335.890243
-56.442690 335.661894 0.225000 0.245753 334.699858
-55.084794 335.096051 0.225000 0.245676 333.517247
-53.771523 334.534350 0.225000 0.245599 332.343291
-52.498117 333.977167 0.225000 0.245524 331.178779
-51.260575 333.424796 0.225000 0.245450 330.024324
-50.055495 332.877516 0.225000 0.245377 328.880508
-48.879952 332.335607 0.225000 0.245305 327.747919
-47.731416 331.799338 0.225000 0.245234 326.627116
-46.607672 331.268932 0.225000 0.245165 325.518568
-45.506776 330.744584 0.225000 0.245096 324.422681
-44.427004 330.226485 0.225000 0.245029 323.339854
-43.366822 329.714835 0.225000 0.244963 322.270505
-42.324857 329.209844 0.225000 0.244898 321.215074
-41.299873 328.711716 0.225000 0.244835 320.173986
-40.290752 328.220627 0.225000 0.244772 319.147610
-39.296480 327.736739 0.225000 0.244711 318.136285
-38.316134 327.260210 0.225000 0.244651 317.140339
-37.348870 326.791209 0.225000 0.244592 316.160127
-36.393910 326.329903 0.225000 0.244534 315.195997
-35.450543 325.876444 0.225000 0.244478 314.248268
-34.518108 325.430966 0.225000 0.244422 313.317219
-33.595995 324.993598 0.225000 0.244368 312.403120
-32.683639 324.564474 0.225000 0.244316 311.506251
-31.780510 324.143734 0.225000 0.244264 310.626904
-30.886118 323.731527 0.225000 0.244214 309.765391
-30.000000 323.327996 0.225000 0.244164 308.922012
-29.121726 322.933260 0.225000 0.244117 308.097013
-28.250889 322.547437 0.225000 0.244070 307.290643
-27.387108 322.170647 0.225000 0.244024 306.503152
-26.530021 321.803016 0.225000 0.243980 305.734803
-25.679289 321.444678 0.225000 0.243937 304.985877
-24.834587 321.095766 0.225000 0.243895 304.256651
-23.995611 320.756407 0.225000 0.243855 303.547391
-23.162069 320.426713 0.225000 0.243815 302.858330
-22.333683 320.106799 0.225000 0.243777 302.189710
-21.510188 319.796782 0.225000 0.243741 301.541774
-20.691333 319.496785 0.225000 0.243705 300.914781
-19.876874 319.206932 0.225000 0.243671 300.308988
-19.066580 318.927336 0.225000 0.243637 299.724632
-18.260228 318.658100 0.225000 0.243606 299.161929
-17.457603 318.399326 0.225000 0.243575 298.621091
-16.658499 318.151116 0.225000 0.243546 298.102332
-15.862716 317.913581 0.225000 0.243517 297.605884
-15.070062 317.686837 0.225000 0.243490 297.131989
-14.280350 317.470998 0.225000 0.243465 296.680886
-13.493399 317.266164 0.225000 0.243440 296.252783
-12.709033 317.072427 0.225000 0.243417 295.847872
-11.927082 316.889877 0.225000 0.243395 295.466343
-11.147378 316.718604 0.225000 0.243375 295.108382
-10.369760 316.558685 0.225000 0.243355 294.774152
-9.594068 316.410174 0.225000 0.243337 294.463764
-8.820148 316.273109 0.225000 0.243320 294.177298
-8.047846 316.147507 0.225000 0.243305 293.914790
-7.277014 316.033373 0.225000 0.243290 293.676250
-6.507504 315.930706 0.225000 0.243277 293.461676
-5.739170 315.839499 0.225000 0.243265 293.271053
-4.971872 315.759745 0.225000 0.243255 293.104367
-4.205466 315.691435 0.225000 0.243246 292.961599
-3.439813 315.634558 0.225000 0.243238 292.842726
-2.674774 315.589105 0.225000 0.243231 292.747729
-1.910213 315.555071 0.225000 0.243225 292.676598
-1.145992 315.532447 0.225000 0.243221 292.629314
-0.381975 315.521230 0.225000 0.243218 292.605871
0.381975 315.521417 0.225000 0.243216 292.606262
1.145992 315.533010 0.225000 0.243216 292.630491
1.910213 315.556009 0.225000 0.243217 292.678559
2.674774 315.590420 0.225000 0.243219 292.750478
3.439813 315.636249 0.225000 0.243222 292.846260
4.205466 315.693502 0.225000 0.243227 292.965919
4.971872 315.762191 0.225000 0.243233 293.109479
5.739170 315.842323 0.225000 0.243240 293.276955
6.507504 315.933908 0.225000 0.243248 293.468368
7.277014 316.036955 0.225000 0.243258 293.683736
8.047846 316.151469 0.225000 0.243269 293.923070
8.820148 316.277452 0.225000 0.243281 294.186375
9.594068 316.414900 0.225000 0.243295 294.473641
10.369760 316.563794 0.225000 0.243310 294.784829
11.147378 316.724097 0.225000 0.243326 295.119863
11.927082 316.895755 0.225000 0.243343 295.478628
12.709033 317.078691 0.225000 0.243362 295.860964
13.493399 317.272814 0.225000 0.243382 296.266681
14.280350 317.478034 0.225000 0.243403 296.695591
15.070062 317.694261 0.225000 0.243426 297.147505
15.862716 317.921392 0.225000 0.243449 297.622209
16.658499 318.159315 0.225000 0.243474 298.119468
17.457603 318.407911 0.225000 0.243501 298.639034
18.260228 318.667073 0.225000 0.243529 299.180683
19.066580 318.936695 0.225000 0.243558 299.744193
19.876874 319.216676 0.225000 0.243588 300.329353
20.691333 319.506913 0.225000 0.243619 300.935948
21.510188 319.807293 0.225000 0.243652 301.563742
22.333683 320.117692 0.225000 0.243686 302.212476
23.162069 320.437985 0.225000 0.243722 302.881889
23.995611 320.768056 0.225000 0.243759 303.571737
24.834587 321.107790 0.225000 0.243797 304.281781
25.679289 321.457072 0.225000 0.243836 305.011780
26.530021 321.815779 0.225000 0.243877 305.761478
27.387108 322.183774 0.225000 0.243919 306.530588
28.250889 322.560924 0.225000 0.243962 307.318831
29.121726 322.947102 0.225000 0.244007 308.125943
30.000000 323.342189 0.225000 0.244052 308.951675
30.886118 323.746065 0.225000 0.244100 309.795776
31.780510 324.158611 0.225000 0.244148 310.657997
32.683639 324.579683 0.225000 0.244198 311.538037
33.595995 325.009133 0.225000 0.244249 312.435588
34.518108 325.446818 0.225000 0.244302 313.350350
35.450543 325.892605 0.225000 0.244355 314.282044
36.393910 326.346364 0.225000 0.244411 315.230401
37.348870 326.807961 0.225000 0.244467 316.195138
38.316134 327.277243 0.225000 0.244525 317.175938
39.296480 327.754041 0.225000 0.244584 318.172446
40.290752 328.238188 0.225000 0.244644 319.184313
41.299873 328.729522 0.225000 0.244706 320.211201
42.324857 329.227882 0.225000 0.244769 321.252773
43.366822 329.733091 0.225000 0.244834 322.308660
44.427004 330.244944 0.225000 0.244900 323.378433
45.506776 330.763230 0.225000 0.244967 324.461651
46.607672 331.287748 0.225000 0.245035 325.557893
47.731416 331.818305 0.225000 0.245105 326.666757
48.879952 332.354706 0.225000 0.245177 327.787836
50.055495 332.896727 0.225000 0.245249 328.920659
51.260575 333.444097 0.225000 0.245323 330.064663
52.498117 333.996533 0.225000 0.245399 331.219254
53.771523 334.553758 0.225000 0.245476 332.383854
55.084794 335.115474 0.225000 0.245554 333.557841
56.442690 335.681304 0.225000 0.245634 334.740425
57.850948 336.250822 0.225000 0.245715 335.930718
59.316583 336.823611 0.225000 0.245798 337.127847
60.848336 337.399236 0.225000 0.245882 338.330903
62.457325 337.977132 0.225000 0.245967 339.538706
64.158067 338.556593 0.225000 0.246055 340.749779
65.970136 339.136904 0.225000 0.246144 341.962629
67.921031 339.717247 0.225000 0.246234 343.175546
70.051556 340.296380 0.225000 0.246326 344.385934
72.427054 340.872851 0.225000 0.246421 345.590759
75.164888 341.444558 0.225000 0.246517 346.785626
78.521659 342.008152 0.225000 0.246617 347.963538
83.380372 342.558778 0.225000 0.246721 349.114346
