# Use this header for notes and global details
# Name of benchmark/experiment:
# Case number:
# Instellation (S_earth):
# XCO2 (ppm):
# Obliquity (degrees):

# Columns of data (annually averaged for last orbit)
# Lat = latitude (degrees)
# Tsurf = annually averaged surface temperature (K)
# Asurf = annually averaged surface albedo
# ATOA = annually averaged top-of-atmosphere/total/planetary albedo
# OLR = annually averaged outgoing longwave radiation (W m^-2)

# Lat Tsurf Asurf ATOA OLR
-83.380372 292.119624 0.268750 0.305242 243.696514
-78.521659 292.257751 0.267500 0.302538 243.985200
-75.164888 292.384786 0.267500 0.301012 244.250703
-72.427054 292.504844 0.267500 0.299601 244.501624
-70.051556 292.620067 0.267500 0.298266 244.742440
-67.921031 292.731996 0.267500 0.296988 244.976372
-65.970136 292.838561 0.266250 0.294479 245.199092
-64.158067 292.939381 0.265000 0.292358 245.409806
-62.457325 293.040934 0.265000 0.291191 245.622052
-60.848336 293.143554 0.265000 0.290059 245.836528
-59.316583 293.245693 0.265000 0.288958 246.049998
-57.850948 293.347884 0.265000 0.287888 246.263578
-56.442690 293.450546 0.263750 0.285920 246.478141
-55.084794 293.549407 0.262500 0.283570 246.684761
-53.771523 293.647579 0.262500 0.282568 246.889940
-52.498117 293.750558 0.262500 0.281591 247.105166
-51.260575 293.855315 0.262500 0.280639 247.324108
-50.055495 293.961356 0.262500 0.279711 247.545734
-48.879952 294.066036 0.260000 0.276526 247.764515
-47.731416 294.168548 0.260000 0.275633 247.978765
-46.607672 294.277274 0.260000 0.274762 248.206003
-45.506776 294.388120 0.260000 0.273914 248.437671
-44.427004 294.500576 0.260000 0.273087 248.672704
-43.366822 294.608400 0.257500 0.269988 248.898056
-42.324857 294.721213 0.257500 0.269193 249.133835
-41.299873 294.837647 0.257500 0.268419 249.377182
-40.290752 294.955497 0.257500 0.267666 249.623489
-39.296480 295.069328 0.256250 0.265582 249.861396
-38.316134 295.186081 0.256250 0.264864 250.105409
-37.348870 295.306628 0.255000 0.263218 250.357353
-36.393910 295.427597 0.253750 0.261194 250.610178
-35.450543 295.541757 0.253750 0.260526 250.848772
-34.518108 295.662902 0.253750 0.259877 251.101965
-33.595995 295.783994 0.253750 0.259248 251.355047
-32.683639 295.898290 0.251250 0.256353 251.593926
-31.780510 296.018350 0.251250 0.255753 251.844852
-30.886118 296.137722 0.251250 0.255172 252.094339
-30.000000 296.249643 0.250000 0.253290 252.328254
-29.121726 296.366834 0.248750 0.251784 252.573183
-28.250889 296.481654 0.247500 0.249950 252.813157
-27.387108 296.591307 0.247500 0.249429 253.042332
-26.530021 296.704005 0.247500 0.248927 253.277870
-25.679289 296.810586 0.245000 0.246195 253.500625
-24.834587 296.918487 0.245000 0.245720 253.726138
-23.995611 297.023883 0.243750 0.243999 253.946415
-23.162069 297.125099 0.243750 0.243554 254.157957
-22.333683 297.226016 0.241250 0.240917 254.368873
-21.510188 297.322900 0.241250 0.240498 254.571361
-20.691333 297.419278 0.240000 0.238880 254.772791
-19.876874 297.511222 0.238750 0.237513 254.964954
-19.066580 297.599764 0.237500 0.235943 255.150007
-18.260228 297.687025 0.235000 0.233429 255.332382
-17.457603 297.771810 0.233750 0.231934 255.509583
-16.658499 297.850648 0.231250 0.229479 255.674354
-15.862716 297.926001 0.225000 0.223926 255.831842
-15.070062 298.000561 0.225000 0.223574 255.987672
-14.280350 298.071468 0.225000 0.223239 256.135868
-13.493399 298.138710 0.225000 0.222922 256.276404
-12.709033 298.202278 0.225000 0.222623 256.409261
-11.927082 298.262160 0.225000 0.222341 256.534414
-11.147378 298.318349 0.225000 0.222077 256.651849
-10.369760 298.370835 0.225000 0.221830 256.761545
-9.594068 298.419611 0.225000 0.221601 256.863487
-8.820148 298.464671 0.225000 0.221390 256.957662
-8.047846 298.506009 0.225000 0.221197 257.044059
-7.277014 298.543618 0.225000 0.221020 257.122662
-6.507504 298.577495 0.225000 0.220862 257.193465
-5.739170 298.607636 0.225000 0.220721 257.256459
-4.971872 298.634035 0.225000 0.220598 257.311633
-4.205466 298.656691 0.225000 0.220492 257.358984
-3.439813 298.675601 0.225000 0.220404 257.398506
-2.674774 298.690762 0.225000 0.220334 257.430193
-1.910213 298.702173 0.225000 0.220281 257.454042
-1.145992 298.709832 0.225000 0.220246 257.470049
-0.381975 298.713739 0.225000 0.220229 257.478215
0.381975 298.713892 0.225000 0.220229 257.478534
1.145992 298.710293 0.225000 0.220246 257.471012
1.910213 298.702941 0.225000 0.220282 257.455647
2.674774 298.691837 0.225000 0.220335 257.432439
3.439813 298.676983 0.225000 0.220405 257.401394
4.205466 298.658379 0.225000 0.220493 257.362512
4.971872 298.636029 0.225000 0.220599 257.315801
5.739170 298.609935 0.225000 0.220723 257.261264
6.507504 298.580100 0.225000 0.220864 257.198909
7.277014 298.546527 0.225000 0.221022 257.128741
8.047846 298.509221 0.225000 0.221199 257.050772
8.820148 298.468187 0.225000 0.221392 256.965011
9.594068 298.423429 0.225000 0.221604 256.871467
10.369760 298.374954 0.225000 0.221833 256.770154
11.147378 298.322768 0.225000 0.222080 256.661085
11.927082 298.266879 0.225000 0.222344 256.544277
12.709033 298.207294 0.225000 0.222626 256.419744
13.493399 298.144023 0.225000 0.222926 256.287508
14.280350 298.077076 0.225000 0.223243 256.147589
15.070062 298.006463 0.225000 0.223578 256.000008
15.862716 297.932195 0.225000 0.223930 255.844788
16.658499 297.856865 0.231250 0.229486 255.687348
17.457603 297.778531 0.235000 0.233073 255.523630
18.260228 297.694370 0.235000 0.233431 255.347733
19.066580 297.607942 0.237500 0.235942 255.167099
19.876874 297.518888 0.238750 0.237509 254.980976
20.691333 297.428364 0.240000 0.238874 254.791781
21.510188 297.331327 0.241250 0.240489 254.588973
22.333683 297.235757 0.241250 0.240908 254.389232
23.162069 297.134423 0.243750 0.243550 254.177444
23.995611 297.034228 0.243750 0.243995 253.968037
24.834587 296.928700 0.245000 0.245719 253.747483
25.679289 296.821338 0.245000 0.246194 253.523096
26.530021 296.715039 0.247500 0.248930 253.300932
27.387108 296.602694 0.247500 0.249432 253.066130
28.250889 296.493201 0.247500 0.249954 252.837290
29.121726 296.379003 0.248750 0.251791 252.598616
30.000000 296.262164 0.250000 0.253298 252.354423
30.886118 296.150644 0.251250 0.255183 252.121346
31.780510 296.031622 0.251250 0.255764 251.872590
32.683639 295.911915 0.251250 0.256364 251.622402
33.595995 295.798060 0.253750 0.259264 251.384445
34.518108 295.677324 0.253750 0.259893 251.132107
35.450543 295.556539 0.253750 0.260542 250.879667
36.393910 295.440211 0.253750 0.261210 250.636541
37.348870 295.322015 0.255000 0.263232 250.389511
38.316134 295.201856 0.256250 0.264879 250.138379
39.296480 295.084711 0.256250 0.265598 249.893546
40.290752 294.971946 0.257500 0.267679 249.657867
41.299873 294.854500 0.257500 0.268433 249.412405
42.324857 294.738473 0.257500 0.269206 249.169909
43.366822 294.627293 0.258750 0.270940 248.937542
44.427004 294.518568 0.260000 0.273096 248.710307
45.506776 294.406516 0.260000 0.273923 248.476118
46.607672 294.296071 0.260000 0.274772 248.245288
47.731416 294.187856 0.260000 0.275643 248.019119
48.879952 294.085742 0.260000 0.276536 247.805701
50.055495 293.981240 0.262500 0.279717 247.587292
51.260575 293.875577 0.262500 0.280645 247.366456
52.498117 293.771188 0.262500 0.281597 247.148283
53.771523 293.669197 0.262500 0.282574 246.935122
55.084794 293.571391 0.262500 0.283575 246.730707
56.442690 293.472117 0.263750 0.285923 246.523225
57.850948 293.369784 0.265000 0.287889 246.309349
59.316583 293.267914 0.265000 0.288960 246.096440
60.848336 293.166093 0.265000 0.290060 245.883634
62.457325 293.063789 0.265000 0.291192 245.669819
64.158067 292.963770 0.265000 0.292358 245.460779
65.970136 292.863275 0.266250 0.294479 245.250745
67.921031 292.755560 0.267500 0.296986 245.025620
70.051556 292.643908 0.267500 0.298263 244.792268
72.427054 292.528980 0.267500 0.299598 244.552068
75.164888 292.409248 0.267500 0.301009 244.301828
78.521659 292.282570 0.267500 0.302535 244.037071
83.380372 292.144837 0.268750 0.305240 243.749209
