# Use this header for notes and global details
# Name of benchmark/experiment:
# Case number:
# Instellation (S_earth):
# XCO2 (ppm):
# Obliquity (degrees):

# Columns of data (annually averaged for last orbit)
# Lat = latitude (degrees)
# Tsurf = annually averaged surface temperature (K)
# Asurf = annually averaged surface albedo
# ATOA = annually averaged top-of-atmosphere/total/planetary albedo
# OLR = annually averaged outgoing longwave radiation (W m^-2)

# Lat Tsurf Asurf ATOA OLR
-83.380372 260.809551 0.572500 0.572653 178.258462
-78.521659 260.433172 0.572500 0.572115 177.471829
-75.164888 260.055621 0.571250 0.570850 176.682748
-72.427054 259.677581 0.571250 0.570593 175.892644
-70.051556 259.299704 0.571250 0.570390 175.102881
-67.921031 258.922301 0.571250 0.570223 174.314109
-65.970136 258.545623 0.571250 0.570085 173.526852
-64.158067 258.169952 0.571250 0.569970 172.741700
-62.457325 257.795436 0.571250 0.569873 171.958961
-60.848336 257.422205 0.572500 0.571197 171.178908
-59.316583 257.052539 0.572500 0.571134 170.406307
-57.850948 256.686177 0.572500 0.571082 169.640610
-56.442690 256.322912 0.572500 0.571039 168.881386
-55.084794 255.962610 0.572500 0.571007 168.128355
-53.771523 255.605203 0.572500 0.570982 167.381374
-52.498117 255.250637 0.572500 0.570964 166.640331
-51.260575 254.898858 0.572500 0.570954 165.905113
-50.055495 254.549834 0.572500 0.570950 165.175653
-48.879952 254.203556 0.573750 0.572356 164.451932
-47.731416 253.861126 0.573750 0.572360 163.736253
-46.607672 253.522438 0.573750 0.572369 163.028395
-45.506776 253.187400 0.573750 0.572382 162.328166
-44.427004 252.855936 0.573750 0.572400 161.635406
-43.366822 252.527997 0.573750 0.572421 160.950014
-42.324857 252.203553 0.573750 0.572446 160.271926
-41.299873 251.882582 0.575000 0.573820 159.601096
-40.290752 251.565798 0.575000 0.573846 158.939018
-39.296480 251.253123 0.575000 0.573875 158.285527
-38.316134 250.944494 0.575000 0.573906 157.640492
-37.348870 250.639864 0.575000 0.573941 157.003816
-36.393910 250.339201 0.575000 0.573978 156.375430
-35.450543 250.042474 0.576250 0.575281 155.755271
-34.518108 249.750186 0.576250 0.575315 155.144389
-33.595995 249.462275 0.576250 0.575352 154.542655
-32.683639 249.178691 0.577500 0.576618 153.949964
-31.780510 248.899581 0.577500 0.576666 153.366624
-30.886118 248.624919 0.578750 0.577898 152.792581
-30.000000 248.355084 0.578750 0.577942 152.228626
-29.121726 248.090021 0.578750 0.577988 151.674644
-28.250889 247.829682 0.580000 0.579144 151.130535
-27.387108 247.574364 0.580000 0.579186 150.596921
-26.530021 247.324018 0.581250 0.580323 150.073698
-25.679289 247.078906 0.582500 0.581689 149.561414
-24.834587 246.839201 0.583750 0.582824 149.060430
-23.995611 246.605125 0.583750 0.582863 148.571211
-23.162069 246.376615 0.585000 0.584012 148.093625
-22.333683 246.153861 0.587500 0.586572 147.628069
-21.510188 245.937281 0.588750 0.587789 147.175417
-20.691333 245.727047 0.600000 0.600000 146.736028
-19.876874 245.525505 0.600000 0.600000 146.314805
-19.066580 245.332523 0.600000 0.600000 145.911473
-18.260228 245.147976 0.600000 0.600000 145.525770
-17.457603 244.971754 0.600000 0.600000 145.157466
-16.658499 244.803759 0.600000 0.600000 144.806356
-15.862716 244.643909 0.600000 0.600000 144.472270
-15.070062 244.492135 0.600000 0.600000 144.155062
-14.280350 244.348373 0.600000 0.600000 143.854600
-13.493399 244.212561 0.600000 0.600000 143.570752
-12.709033 244.084646 0.600000 0.600000 143.303410
-11.927082 243.964579 0.600000 0.600000 143.052470
-11.147378 243.852322 0.600000 0.600000 142.817853
-10.369760 243.747840 0.600000 0.600000 142.599486
-9.594068 243.651089 0.600000 0.600000 142.397276
-8.820148 243.562028 0.600000 0.600000 142.211139
-8.047846 243.480607 0.600000 0.600000 142.040969
-7.277014 243.406777 0.600000 0.600000 141.886664
-6.507504 243.340493 0.600000 0.600000 141.748130
-5.739170 243.281709 0.600000 0.600000 141.625272
-4.971872 243.230386 0.600000 0.600000 141.518007
-4.205466 243.186489 0.600000 0.600000 141.426262
-3.439813 243.149985 0.600000 0.600000 141.349969
-2.674774 243.120850 0.600000 0.600000 141.289076
-1.910213 243.099061 0.600000 0.600000 141.243537
-1.145992 243.084602 0.600000 0.600000 141.213318
-0.381975 243.077464 0.600000 0.600000 141.198400
0.381975 243.077640 0.600000 0.600000 141.198768
1.145992 243.085131 0.600000 0.600000 141.214424
1.910213 243.099942 0.600000 0.600000 141.245379
2.674774 243.122083 0.600000 0.600000 141.291653
3.439813 243.151571 0.600000 0.600000 141.353283
4.205466 243.188427 0.600000 0.600000 141.430312
4.971872 243.232677 0.600000 0.600000 141.522795
5.739170 243.284352 0.600000 0.600000 141.630796
6.507504 243.343487 0.600000 0.600000 141.754388
7.277014 243.410124 0.600000 0.600000 141.893659
8.047846 243.484305 0.600000 0.600000 142.048697
8.820148 243.566077 0.600000 0.600000 142.219601
9.594068 243.655489 0.600000 0.600000 142.406472
10.369760 243.752590 0.600000 0.600000 142.609413
11.147378 243.857423 0.600000 0.600000 142.828514
11.927082 243.970030 0.600000 0.600000 143.063863
12.709033 244.090446 0.600000 0.600000 143.315532
13.493399 244.218709 0.600000 0.600000 143.583602
14.280350 244.354868 0.600000 0.600000 143.868174
15.070062 244.498976 0.600000 0.600000 144.169360
15.862716 244.651096 0.600000 0.600000 144.487291
16.658499 244.811289 0.600000 0.600000 144.822094
17.457603 244.979626 0.600000 0.600000 145.173918
18.260228 245.156188 0.600000 0.600000 145.542933
19.066580 245.341072 0.600000 0.600000 145.929340
19.876874 245.534389 0.600000 0.600000 146.333373
20.691333 245.736262 0.600000 0.600000 146.755288
21.510188 245.946824 0.588750 0.587786 147.195362
22.333683 246.163726 0.587500 0.586572 147.648687
23.162069 246.386797 0.585000 0.584011 148.114906
23.995611 246.615619 0.583750 0.582859 148.593144
24.834587 246.850001 0.583750 0.582820 149.083002
25.679289 247.090005 0.582500 0.581683 149.584610
26.530021 247.335405 0.581250 0.580320 150.097496
27.387108 247.586033 0.580000 0.579183 150.621309
28.250889 247.841622 0.580000 0.579141 151.155490
29.121726 248.102221 0.578750 0.577968 151.700142
30.000000 248.367525 0.578750 0.577922 152.254627
30.886118 248.637580 0.578750 0.577878 152.819042
31.780510 248.912436 0.578750 0.577836 153.393491
32.683639 249.192147 0.577500 0.576595 153.978087
33.595995 249.476313 0.576250 0.575333 154.571994
34.518108 249.764786 0.576250 0.575297 155.174903
35.450543 250.057616 0.576250 0.575263 155.786917
36.393910 250.354868 0.575000 0.573957 156.408174
37.348870 250.656037 0.575000 0.573920 157.037617
38.316134 250.961156 0.575000 0.573886 157.675316
39.296480 251.270259 0.575000 0.573854 158.321341
40.290752 251.583392 0.575000 0.573826 158.975789
41.299873 251.900619 0.575000 0.573801 159.638794
42.324857 252.222020 0.573750 0.572430 160.310522
43.366822 252.546888 0.573750 0.572405 160.989496
44.427004 252.875243 0.573750 0.572384 161.675758
45.506776 253.207116 0.573750 0.572367 162.369372
46.607672 253.542560 0.573750 0.572354 163.070450
47.731416 253.881649 0.573750 0.572346 163.779146
48.879952 254.224480 0.573750 0.572343 164.495663
50.055495 254.571157 0.572500 0.570938 165.220218
51.260575 254.920578 0.572500 0.570942 165.950508
52.498117 255.272751 0.572500 0.570953 166.686550
53.771523 255.627711 0.572500 0.570971 167.428416
55.084794 255.985513 0.572500 0.570996 168.176222
56.442690 256.346212 0.572500 0.571030 168.930083
57.850948 256.709879 0.572500 0.571072 169.690147
59.316583 257.076648 0.572500 0.571125 170.456694
60.848336 257.446731 0.572500 0.571189 171.230168
62.457325 257.820391 0.571250 0.569865 172.011117
64.158067 258.195335 0.571250 0.569962 172.794750
65.970136 258.571433 0.571250 0.570078 173.580795
67.921031 258.948534 0.571250 0.570217 174.368936
70.051556 259.326353 0.571250 0.570384 175.158578
72.427054 259.704638 0.571250 0.570589 175.949193
75.164888 260.083068 0.571250 0.570846 176.740112
78.521659 260.460986 0.572500 0.572112 177.529961
83.380372 260.837695 0.572500 0.572653 178.317283
